I,II,III,avR,aVL,aVF,V1,V2,V3,V4,V5,V6
-100,-149,-46,129,-22,-98,16,-68,-63,-82,-110,-68
-104,-153,-45,133,-25,-100,16,-69,-63,-83,-110,-68
-108,-156,-44,136,-27,-101,17,-69,-63,-83,-110,-69
-112,-159,-44,139,-30,-102,18,-69,-62,-83,-109,-69
-115,-161,-43,142,-32,-102,19,-68,-62,-83,-109,-68
-117,-162,-41,143,-34,-101,21,-67,-61,-82,-108,-67
-119,-161,-40,144,-35,-100,23,-66,-60,-81,-107,-66
-119,-160,-38,144,-36,-99,25,-65,-59,-81,-106,-64
-119,-158,-37,143,-37,-97,26,-64,-58,-80,-106,-63
-119,-156,-35,141,-38,-94,28,-63,-58,-79,-106,-62
-118,-153,-34,139,-38,-92,29,-63,-57,-79,-107,-61
-117,-151,-33,138,-39,-90,29,-62,-57,-79,-108,-61
-116,-149,-32,136,-39,-89,30,-62,-57,-79,-109,-61
-115,-147,-31,135,-39,-87,30,-62,-57,-80,-111,-62
-114,-146,-31,133,-38,-87,30,-62,-57,-80,-112,-64
-113,-145,-30,132,-38,-86,30,-61,-57,-81,-114,-66
-112,-144,-30,132,-38,-86,30,-61,-57,-81,-115,-67
-112,-144,-30,131,-37,-86,30,-61,-57,-82,-117,-68
-111,-144,-31,131,-37,-86,31,-61,-57,-82,-118,-69
-111,-144,-31,131,-37,-87,31,-62,-57,-83,-119,-69
-111,-145,-31,131,-36,-87,31,-62,-57,-84,-119,-68
-111,-145,-31,132,-36,-88,31,-63,-57,-84,-120,-68
-111,-145,-32,132,-36,-88,31,-64,-58,-85,-122,-67
-111,-146,-32,133,-36,-89,31,-66,-58,-86,-124,-66
-111,-146,-33,133,-36,-89,30,-68,-59,-88,-126,-65
-111,-146,-33,133,-35,-90,29,-69,-60,-89,-128,-65
-110,-146,-34,132,-35,-90,28,-71,-60,-90,-130,-66
-109,-146,-34,132,-34,-90,26,-72,-61,-91,-132,-67
-108,-146,-34,131,-33,-90,25,-73,-61,-92,-134,-68
-108,-145,-34,130,-33,-90,24,-73,-60,-92,-134,-69
-107,-144,-34,130,-33,-89,24,-73,-59,-91,-133,-71
-107,-142,-32,129,-33,-87,25,-72,-58,-89,-132,-72
-107,-141,-30,128,-35,-85,26,-70,-55,-87,-129,-73
-108,-139,-28,127,-36,-83,28,-68,-52,-84,-126,-73
-109,-137,-25,127,-38,-81,31,-66,-49,-81,-122,-73
-110,-135,-23,127,-41,-78,34,-63,-47,-78,-118,-73
-112,-134,-20,127,-43,-76,37,-62,-44,-76,-116,-71
-113,-134,-18,127,-45,-75,39,-60,-42,-75,-114,-70
-115,-134,-17,128,-47,-74,40,-60,-42,-75,-113,-68
-117,-135,-16,130,-48,-74,40,-60,-42,-75,-114,-66
-118,-137,-16,131,-49,-75,39,-62,-43,-77,-115,-65
-120,-139,-17,133,-49,-77,37,-64,-46,-80,-118,-63
-122,-143,-19,136,-49,-80,34,-67,-49,-84,-122,-62
-123,-146,-21,138,-49,-83,31,-71,-53,-88,-126,-62
-124,-150,-24,141,-48,-86,27,-75,-57,-92,-130,-62
-125,-154,-26,143,-47,-89,24,-78,-61,-96,-134,-63
-126,-157,-28,145,-46,-91,21,-82,-65,-100,-138,-65
-127,-159,-30,146,-45,-94,19,-84,-68,-102,-141,-66
-126,-160,-31,147,-45,-95,18,-85,-70,-104,-143,-68
-126,-161,-32,146,-44,-96,19,-85,-70,-104,-144,-70
-125,-160,-32,146,-43,-95,20,-84,-70,-104,-144,-71
-124,-158,-32,144,-43,-95,22,-83,-69,-103,-143,-72
-122,-156,-31,142,-42,-93,24,-81,-67,-101,-141,-72
-121,-154,-30,141,-42,-92,25,-79,-65,-99,-140,-72
-120,-152,-30,139,-42,-90,26,-77,-63,-97,-138,-72
-119,-150,-29,138,-42,-89,26,-77,-61,-96,-137,-71
-118,-150,-29,137,-42,-89,25,-78,-60,-95,-136,-71
-118,-150,-29,137,-42,-89,23,-79,-60,-95,-136,-71
-118,-151,-30,138,-42,-90,20,-82,-61,-96,-136,-72
-119,-153,-31,139,-42,-91,17,-86,-62,-97,-138,-73
-119,-155,-32,140,-41,-93,13,-90,-64,-99,-139,-74
-120,-157,-34,142,-40,-95,10,-94,-66,-101,-142,-76
-120,-159,-36,143,-40,-97,7,-97,-67,-103,-144,-77
-120,-161,-37,145,-39,-98,6,-100,-69,-105,-146,-79
-121,-163,-38,146,-39,-100,5,-102,-70,-106,-148,-79
-122,-165,-39,147,-39,-101,4,-103,-71,-107,-150,-79
-123,-166,-39,149,-39,-102,4,-104,-71,-108,-151,-79
-125,-167,-39,150,-40,-103,5,-104,-72,-108,-152,-78
-126,-169,-39,152,-41,-103,5,-105,-72,-109,-152,-77
-128,-170,-38,153,-42,-103,6,-105,-73,-109,-152,-76
-130,-171,-38,155,-43,-104,5,-106,-73,-110,-152,-75
-132,-172,-37,156,-44,-104,5,-107,-74,-111,-152,-75
-132,-172,-37,156,-44,-104,5,-107,-74,-111,-151,-75
-132,-172,-36,156,-44,-104,4,-108,-75,-112,-151,-76
-131,-170,-37,155,-43,-103,3,-108,-75,-112,-151,-77
-128,-168,-37,152,-42,-102,3,-108,-75,-112,-151,-79
-124,-165,-38,149,-39,-101,3,-107,-74,-112,-151,-80
-119,-162,-40,145,-36,-101,4,-106,-73,-111,-150,-81
-114,-159,-41,141,-33,-100,5,-105,-72,-110,-150,-82
-109,-157,-44,137,-29,-100,5,-104,-71,-109,-150,-83
-104,-155,-47,134,-25,-101,6,-104,-71,-109,-151,-84
-101,-155,-50,132,-22,-103,7,-103,-71,-109,-151,-84
-99,-157,-53,132,-19,-105,7,-104,-71,-109,-153,-84
-99,-160,-56,133,-17,-108,6,-105,-73,-111,-154,-84
-100,-164,-59,136,-16,-112,5,-108,-75,-113,-157,-84
-102,-169,-62,139,-16,-116,4,-110,-78,-116,-159,-83
-105,-174,-64,144,-17,-119,2,-113,-82,-119,-162,-83
-109,-179,-65,148,-18,-123,0,-116,-85,-122,-164,-82
-112,-183,-65,152,-19,-125,-2,-119,-89,-125,-167,-82
-116,-186,-65,155,-21,-127,-4,-122,-91,-129,-169,-82
-119,-189,-64,158,-23,-128,-6,-124,-93,-131,-170,-82
-123,-191,-63,161,-25,-128,-8,-125,-95,-134,-171,-83
-126,-192,-62,163,-28,-128,-9,-125,-95,-135,-172,-84
-129,-194,-61,165,-30,-128,-11,-125,-95,-137,-172,-86
-132,-195,-59,167,-32,-128,-12,-125,-94,-137,-173,-88
-134,-196,-58,169,-34,-128,-13,-125,-93,-137,-173,-91
-137,-198,-57,171,-36,-128,-13,-124,-91,-137,-173,-94
-139,-199,-56,173,-37,-128,-13,-124,-90,-136,-173,-97
-141,-200,-55,175,-38,-129,-13,-124,-89,-135,-173,-99
-142,-201,-55,176,-39,-129,-11,-124,-88,-135,-174,-101
-141,-201,-56,176,-38,-129,-9,-124,-87,-134,-175,-103
-140,-201,-57,175,-37,-130,-7,-124,-86,-134,-175,-104
-138,-201,-58,174,-36,-130,-4,-125,-86,-134,-176,-105
-135,-200,-60,172,-33,-131,-1,-125,-86,-134,-177,-105
-132,-199,-62,170,-31,-132,0,-125,-86,-134,-178,-104
-129,-197,-64,167,-28,-132,2,-125,-86,-135,-179,-104
-126,-196,-66,165,-26,-133,3,-125,-87,-136,-179,-103
-123,-195,-67,163,-24,-133,3,-125,-87,-136,-179,-102
-121,-194,-68,162,-23,-133,3,-126,-87,-136,-179,-102
-120,-194,-69,161,-22,-133,2,-126,-87,-136,-179,-101
-119,-193,-69,160,-21,-132,0,-126,-87,-136,-179,-100
-119,-192,-69,160,-21,-132,-1,-127,-87,-136,-178,-99
-119,-192,-68,160,-22,-131,-2,-128,-87,-135,-177,-98
-120,-192,-67,160,-22,-131,-3,-129,-87,-135,-177,-98
-121,-193,-67,161,-23,-130,-4,-130,-87,-134,-176,-97
-122,-194,-66,162,-23,-131,-5,-131,-87,-134,-176,-96
-123,-195,-66,163,-24,-131,-5,-132,-87,-134,-177,-95
-125,-197,-67,165,-25,-132,-4,-132,-87,-134,-177,-95
-126,-199,-67,167,-25,-133,-3,-132,-86,-135,-178,-94
-128,-201,-68,168,-25,-135,-2,-131,-86,-135,-179,-94
-129,-203,-69,170,-25,-136,0,-129,-85,-135,-180,-95
-129,-204,-69,171,-26,-137,1,-127,-84,-135,-180,-95
-129,-205,-70,171,-25,-138,3,-125,-84,-134,-181,-96
-129,-205,-71,171,-25,-138,6,-124,-83,-134,-181,-97
-128,-204,-71,170,-25,-138,8,-122,-82,-133,-181,-97
-126,-203,-71,169,-24,-137,9,-121,-82,-132,-181,-98
-125,-201,-71,167,-23,-136,10,-121,-82,-132,-181,-98
-123,-199,-71,165,-23,-135,10,-122,-82,-131,-181,-98
-121,-197,-71,163,-22,-134,9,-123,-83,-131,-181,-98
-120,-195,-70,161,-22,-133,8,-125,-83,-132,-181,-98
-119,-193,-70,160,-21,-132,7,-127,-85,-132,-181,-98
-119,-193,-70,160,-21,-132,5,-129,-86,-134,-182,-98
-119,-193,-69,160,-21,-132,3,-131,-87,-135,-184,-97
-120,-194,-70,161,-22,-132,2,-132,-89,-137,-185,-98
-120,-195,-70,162,-22,-133,1,-133,-90,-139,-187,-98
-121,-196,-70,163,-22,-134,0,-134,-92,-141,-190,-98
-122,-197,-71,164,-22,-135,0,-134,-93,-143,-192,-99
-122,-198,-71,165,-22,-135,0,-133,-94,-145,-194,-100
-123,-199,-72,165,-21,-136,0,-133,-95,-146,-195,-101
-123,-200,-72,166,-21,-136,1,-133,-95,-146,-196,-103
-122,-200,-73,166,-20,-137,1,-132,-95,-146,-197,-104
-122,-200,-73,165,-20,-137,2,-132,-95,-146,-196,-105
-121,-200,-74,165,-20,-137,3,-132,-94,-144,-196,-106
-121,-200,-74,165,-19,-137,4,-132,-93,-142,-194,-107
-121,-200,-75,165,-19,-138,5,-131,-91,-140,-193,-107
-121,-201,-75,165,-19,-138,6,-131,-89,-138,-191,-107
-122,-202,-75,166,-19,-139,8,-130,-87,-137,-189,-107
-123,-203,-75,167,-19,-140,9,-129,-85,-135,-188,-106
-124,-204,-75,168,-20,-141,11,-127,-82,-134,-186,-106
-126,-205,-75,169,-21,-141,13,-125,-80,-132,-185,-105
-127,-206,-74,170,-22,-141,16,-122,-77,-131,-184,-104
-129,-206,-72,171,-24,-140,19,-120,-75,-130,-182,-103
-130,-205,-70,171,-25,-138,22,-117,-72,-129,-181,-103
-130,-203,-67,170,-27,-136,26,-114,-69,-127,-180,-103
-131,-200,-64,169,-29,-133,29,-111,-67,-126,-179,-102
-130,-196,-61,167,-31,-129,33,-109,-65,-124,-177,-102
-130,-192,-57,165,-32,-125,36,-107,-63,-123,-176,-102
-129,-188,-54,162,-33,-121,39,-106,-62,-121,-175,-102
-128,-184,-51,160,-35,-118,41,-106,-61,-120,-175,-101
-127,-180,-49,158,-36,-114,42,-107,-61,-120,-175,-101
-127,-177,-46,156,-36,-112,42,-109,-62,-120,-175,-100
-126,-174,-45,154,-37,-109,41,-111,-63,-121,-175,-100
-125,-172,-44,153,-37,-108,40,-113,-64,-122,-175,-99
-124,-170,-43,151,-37,-106,39,-115,-65,-123,-176,-98
-123,-168,-43,149,-37,-105,38,-116,-66,-124,-176,-97
-121,-165,-42,147,-36,-104,37,-116,-66,-124,-175,-95
-118,-162,-42,144,-35,-102,37,-115,-66,-124,-174,-94
-115,-159,-41,141,-34,-100,38,-114,-65,-123,-173,-91
-112,-154,-40,137,-33,-97,40,-112,-63,-122,-171,-89
-108,-149,-39,133,-32,-94,42,-109,-61,-120,-169,-86
-105,-144,-37,129,-31,-90,44,-107,-58,-117,-167,-84
-101,-139,-35,124,-30,-86,47,-106,-56,-114,-164,-81
-98,-133,-32,120,-30,-82,48,-105,-55,-112,-162,-77
-96,-128,-30,116,-30,-78,48,-106,-54,-110,-160,-74
-94,-124,-27,113,-31,-74,47,-108,-55,-108,-159,-71
-93,-120,-25,111,-31,-71,45,-111,-56,-107,-158,-68
-92,-118,-24,109,-32,-69,41,-116,-58,-107,-157,-66
-92,-116,-23,108,-32,-68,35,-121,-60,-107,-156,-63
-92,-116,-23,108,-32,-68,29,-127,-63,-108,-156,-61
-91,-116,-24,108,-31,-68,23,-133,-66,-109,-156,-60
-91,-117,-26,108,-30,-70,17,-138,-69,-111,-157,-59
-90,-119,-28,109,-29,-72,11,-142,-72,-113,-157,-58
-89,-121,-30,109,-27,-74,6,-145,-74,-115,-158,-58
-89,-122,-33,110,-26,-76,2,-147,-75,-117,-159,-58
-88,-124,-35,110,-24,-78,0,-148,-76,-119,-161,-59
-87,-126,-37,111,-23,-80,-1,-148,-77,-120,-162,-60
-87,-127,-39,111,-22,-82,-2,-147,-76,-121,-163,-61
-87,-129,-40,112,-21,-84,-3,-146,-76,-121,-165,-63
-88,-131,-42,113,-20,-86,-3,-144,-75,-121,-166,-65
-89,-133,-43,115,-20,-88,-3,-143,-74,-121,-167,-67
-90,-136,-44,117,-20,-90,-3,-142,-73,-121,-167,-69
-92,-140,-46,120,-20,-93,-2,-141,-72,-121,-167,-72
-93,-144,-48,123,-20,-96,-2,-140,-72,-120,-167,-74
-95,-149,-50,126,-19,-100,-1,-140,-71,-120,-167,-77
-97,-154,-53,130,-19,-104,0,-140,-71,-121,-167,-79
-99,-160,-56,134,-18,-108,0,-141,-72,-121,-167,-82
-101,-166,-60,138,-17,-113,1,-142,-72,-123,-167,-85
-104,-172,-64,142,-16,-118,3,-143,-74,-125,-169,-87
-106,-179,-68,146,-16,-124,4,-144,-76,-127,-171,-90
-108,-185,-72,151,-15,-129,4,-146,-79,-131,-174,-93
-111,-192,-75,155,-14,-134,4,-148,-82,-135,-179,-96
-114,-199,-79,160,-14,-140,3,-149,-85,-139,-184,-100
-117,-206,-83,166,-14,-145,1,-151,-89,-144,-190,-103
-121,-212,-86,171,-14,-150,0,-153,-94,-149,-196,-107
-125,-219,-88,176,-14,-154,-1,-155,-98,-155,-202,-110
-129,-224,-91,181,-15,-158,-3,-157,-102,-159,-207,-114
-132,-230,-92,185,-16,-162,-4,-158,-105,-164,-212,-117
-136,-235,-94,190,-17,-165,-5,-159,-108,-168,-216,-119
-139,-239,-95,193,-17,-168,-4,-160,-111,-171,-218,-122
-141,-242,-97,196,-18,-170,-3,-161,-113,-173,-219,-124
-142,-245,-98,198,-18,-172,-1,-161,-114,-174,-220,-125
-143,-246,-99,199,-18,-174,1,-161,-114,-175,-219,-126
-143,-247,-100,199,-17,-174,3,-161,-114,-175,-218,-126
-142,-247,-100,199,-17,-175,5,-162,-113,-174,-216,-127
-142,-246,-100,198,-16,-174,7,-162,-112,-173,-214,-127
-141,-245,-100,197,-16,-174,8,-162,-111,-172,-212,-127
-140,-244,-99,196,-16,-173,8,-162,-110,-171,-211,-126
-139,-243,-99,195,-16,-171,7,-163,-109,-170,-210,-126
-139,-242,-98,194,-17,-171,5,-163,-109,-170,-210,-127
-140,-242,-97,195,-17,-170,3,-163,-109,-170,-211,-127
-140,-243,-97,196,-18,-171,1,-164,-109,-171,-212,-128
-142,-245,-98,198,-18,-172,0,-164,-110,-173,-215,-130
-144,-249,-100,200,-18,-175,-1,-165,-112,-175,-218,-132
-146,-253,-102,203,-18,-178,-3,-166,-113,-177,-221,-135
-148,-258,-105,207,-18,-182,-4,-167,-115,-179,-224,-138
-150,-263,-108,211,-17,-186,-5,-168,-116,-181,-226,-141
-153,-267,-110,214,-17,-190,-5,-168,-117,-182,-228,-144
-155,-271,-111,217,-18,-192,-5,-169,-117,-183,-229,-146
-157,-273,-112,219,-18,-193,-5,-168,-116,-183,-229,-148
-158,-273,-110,220,-20,-193,-4,-167,-114,-182,-229,-150
-160,-272,-108,220,-22,-191,-3,-166,-112,-180,-228,-151
-161,-269,-104,220,-24,-187,-1,-164,-109,-178,-226,-151
-162,-265,-99,218,-27,-183,0,-161,-106,-176,-225,-150
-162,-261,-95,216,-29,-179,2,-158,-104,-174,-223,-149
-161,-257,-91,213,-31,-175,4,-156,-102,-172,-223,-148
-160,-252,-88,211,-32,-171,6,-154,-100,-171,-222,-147
-159,-249,-85,208,-33,-168,7,-153,-99,-170,-222,-145
-157,-245,-84,205,-32,-166,8,-153,-99,-170,-223,-144
-154,-243,-85,203,-31,-165,9,-154,-99,-170,-224,-142
-152,-241,-85,201,-29,-164,9,-156,-100,-170,-224,-140
-149,-240,-87,199,-27,-164,8,-158,-101,-171,-224,-138
-146,-239,-89,197,-25,-164,6,-160,-101,-171,-223,-136
-143,-238,-91,195,-22,-165,4,-163,-102,-171,-222,-134
-141,-238,-92,193,-20,-165,1,-165,-102,-171,-220,-131
-139,-238,-94,193,-18,-166,0,-167,-101,-171,-218,-129
-138,-239,-96,193,-17,-168,-2,-167,-100,-170,-216,-128
-138,-241,-98,194,-16,-170,-3,-166,-98,-170,-216,-129
-139,-245,-101,196,-15,-173,-1,-163,-95,-170,-217,-131
-141,-250,-104,199,-14,-177,2,-156,-91,-171,-221,-137
-145,-257,-107,204,-14,-182,11,-145,-84,-171,-227,-146
-149,-264,-110,210,-15,-187,24,-128,-73,-170,-236,-158
-154,-271,-112,216,-16,-192,43,-104,-58,-168,-247,-174
-159,-276,-112,221,-18,-195,67,-73,-37,-162,-258,-192
-162,-277,-110,223,-22,-194,96,-36,-10,-151,-266,-209
-164,-272,-103,221,-26,-188,127,5,24,-133,-267,-222
-161,-257,-91,213,-31,-175,158,49,65,-105,-257,-228
-153,-229,-72,195,-37,-151,185,91,111,-66,-231,-222
-138,-185,-44,166,-44,-115,204,126,161,-14,-183,-198
-115,-123,-5,123,-51,-65,210,150,212,52,-109,-153
-82,-40,44,65,-60,1,201,155,261,134,-6,-83
-40,64,107,-7,-71,85,174,139,306,231,128,14
10,190,182,-95,-84,185,126,99,344,340,291,140
67,333,268,-196,-98,300,59,33,373,458,480,291
128,490,364,-304,-116,426,-24,-55,392,580,686,462
189,654,466,-417,-136,559,-122,-164,400,701,900,647
247,815,569,-526,-159,691,-228,-287,397,813,1110,834
298,965,668,-627,-182,815,-336,-417,381,909,1300,1014
337,1093,757,-710,-207,923,-441,-548,352,982,1460,1176
362,1190,829,-771,-231,1008,-537,-671,310,1024,1575,1309
369,1248,880,-804,-252,1063,-619,-783,255,1030,1636,1404
358,1263,905,-806,-270,1083,-685,-878,186,996,1638,1455
330,1232,903,-776,-283,1066,-732,-953,103,921,1578,1458
285,1156,872,-716,-290,1013,-762,-1009,7,807,1460,1414
227,1041,815,-629,-290,927,-774,-1045,-98,661,1292,1327
159,893,736,-522,-285,814,-771,-1063,-209,489,1085,1204
87,725,640,-401,-273,681,-754,-1065,-322,303,853,1053
14,545,533,-275,-256,539,-727,-1053,-430,113,611,887
-53,367,423,-152,-236,395,-692,-1029,-526,-67,376,715
-114,199,316,-38,-212,257,-651,-994,-606,-228,159,547
-163,51,217,60,-188,134,-605,-949,-663,-362,-27,392
-200,-72,131,140,-163,29,-556,-897,-695,-463,-177,257
-225,-167,60,200,-140,-53,-505,-837,-702,-528,-289,144
-237,-234,5,240,-118,-114,-452,-772,-684,-559,-362,56
-238,-275,-34,261,-99,-155,-399,-703,-645,-560,-401,-9
-231,-295,-60,267,-83,-177,-346,-630,-589,-536,-411,-54
-218,-297,-74,262,-69,-186,-293,-557,-522,-495,-401,-82
-202,-287,-81,249,-57,-184,-242,-486,-449,-442,-376,-98
-185,-271,-82,232,-48,-177,-194,-417,-375,-386,-345,-105
-168,-252,-80,214,-41,-166,-149,-353,-305,-330,-311,-106
-153,-234,-76,198,-35,-156,-107,-294,-241,-280,-280,-105
-141,-218,-73,184,-30,-146,-70,-243,-185,-236,-253,-103
-132,-206,-70,173,-27,-139,-37,-198,-138,-200,-231,-100
-125,-198,-68,166,-25,-134,-8,-160,-99,-171,-214,-98
-121,-192,-67,161,-23,-131,15,-129,-68,-149,-201,-97
-119,-189,-66,158,-23,-128,35,-104,-43,-133,-192,-97
-118,-186,-64,157,-23,-126,52,-85,-24,-121,-186,-96
-118,-184,-62,156,-24,-124,66,-70,-9,-111,-181,-97
-119,-182,-60,155,-26,-122,78,-58,2,-104,-177,-97
-120,-180,-57,154,-28,-119,88,-49,12,-98,-174,-97
-121,-178,-54,154,-30,-116,96,-42,21,-92,-171,-98
-123,-175,-50,154,-33,-113,103,-36,28,-87,-168,-99
-124,-174,-47,153,-36,-110,109,-32,34,-82,-166,-101
-126,-172,-44,154,-38,-107,114,-28,40,-77,-163,-102
-128,-172,-43,154,-40,-106,118,-24,46,-73,-160,-104
-129,-172,-42,155,-41,-106,121,-21,51,-68,-157,-106
-130,-173,-41,156,-41,-106,124,-18,56,-64,-154,-108
-130,-174,-42,156,-41,-107,126,-16,61,-60,-151,-109
-129,-175,-43,156,-40,-108,127,-13,65,-56,-148,-110
-127,-175,-45,155,-38,-109,128,-10,70,-52,-145,-111
-124,-174,-47,153,-35,-110,130,-7,75,-49,-142,-111
-120,-172,-49,150,-32,-110,131,-3,80,-45,-139,-111
-115,-169,-50,146,-28,-110,132,0,84,-42,-137,-110
-110,-165,-52,142,-25,-109,134,3,90,-38,-134,-108
-105,-161,-52,138,-22,-108,137,7,95,-35,-132,-107
-101,-157,-52,133,-20,-106,139,12,100,-32,-130,-105
-98,-153,-52,130,-19,-103,143,17,105,-29,-129,-104
-96,-150,-50,127,-19,-101,146,22,109,-26,-127,-102
-96,-147,-48,126,-20,-98,150,27,114,-23,-126,-101
-97,-146,-46,126,-22,-96,154,31,118,-20,-125,-100
-100,-145,-43,127,-26,-93,157,35,122,-17,-124,-98
-104,-145,-39,128,-30,-91,160,38,125,-15,-123,-98
-108,-146,-36,131,-34,-89,163,40,127,-13,-122,-97
-112,-146,-32,133,-38,-88,165,41,129,-11,-121,-96
-116,-146,-29,135,-41,-86,166,41,130,-10,-120,-94
-118,-145,-26,136,-44,-84,166,41,131,-9,-118,-93
-119,-144,-24,135,-46,-82,166,40,132,-8,-117,-91
-118,-141,-22,134,-46,-80,166,40,134,-8,-115,-89
-115,-137,-21,130,-45,-78,166,40,136,-7,-113,-87
-111,-133,-21,126,-43,-75,166,41,138,-5,-111,-85
-105,-128,-22,121,-40,-73,166,43,141,-3,-108,-83
-100,-123,-23,116,-36,-72,166,46,145,-1,-105,-81
-94,-119,-24,111,-33,-70,167,50,149,0,-103,-80
-89,-116,-26,107,-30,-70,167,54,154,3,-100,-79
-85,-114,-28,104,-27,-69,168,58,159,6,-98,-80
-82,-113,-30,102,-25,-70,170,63,164,9,-96,-80
-81,-113,-31,101,-23,-70,171,66,168,11,-94,-81
-81,-114,-32,102,-23,-71,173,69,173,14,-93,-82
-82,-114,-32,103,-23,-72,175,72,177,17,-91,-83
-83,-115,-31,104,-24,-72,177,75,181,20,-88,-83
-85,-115,-30,104,-26,-71,179,77,185,24,-85,-82
-86,-114,-27,105,-27,-69,181,80,189,28,-81,-81
-87,-112,-24,104,-29,-67,183,83,194,33,-77,-78
-87,-109,-21,102,-31,-63,186,87,199,39,-72,-75
-86,-104,-16,99,-33,-58,188,92,206,45,-66,-72
-85,-97,-11,96,-35,-53,191,97,213,52,-59,-68
-83,-90,-6,91,-37,-47,194,103,221,60,-52,-64
-80,-83,-1,86,-38,-41,197,109,230,68,-46,-61
-78,-75,4,81,-40,-34,200,116,239,77,-39,-57
-75,-67,9,75,-41,-27,203,123,249,86,-33,-54
-72,-59,14,70,-42,-21,207,130,259,94,-27,-50
-70,-51,19,65,-43,-15,211,137,268,103,-21,-47
-67,-45,23,60,-44,-9,215,144,278,111,-16,-44
-65,-39,27,56,-44,-5,219,150,287,119,-11,-42
-63,-34,30,53,-45,0,223,156,295,126,-7,-39
-61,-29,32,49,-45,2,227,161,304,132,-2,-37
-59,-25,34,47,-45,5,229,167,311,138,1,-34
-57,-22,35,44,-45,8,232,172,319,143,5,-32
-55,-19,36,41,-44,10,234,177,326,149,10,-30
-53,-15,37,38,-43,12,235,183,334,154,15,-28
-50,-11,38,35,-42,15,237,189,342,160,20,-25
-46,-6,40,31,-42,18,239,197,352,167,25,-22
-43,0,42,26,-41,22,242,206,362,175,32,-19
-39,6,46,20,-41,28,246,215,374,184,39,-15
-36,15,51,14,-42,34,251,227,387,195,48,-11
-33,24,57,8,-44,42,257,239,401,207,56,-6
-30,35,65,1,-46,51,264,252,416,220,66,-1
-29,45,74,-4,-50,60,271,265,432,234,76,2
-28,55,83,-9,-54,69,279,279,447,248,86,6
-27,65,93,-14,-59,78,287,292,463,261,95,10
-27,74,102,-19,-63,87,294,303,477,275,104,14
-27,82,110,-23,-67,95,301,314,491,287,113,17
-26,90,117,-27,-71,102,307,323,503,299,121,20
-25,98,124,-32,-73,109,311,331,514,309,128,23
-22,106,129,-38,-75,116,315,337,524,319,136,27
-18,115,135,-44,-75,123,318,343,534,329,144,32
-13,125,140,-52,-75,130,320,348,543,339,152,38
-7,137,145,-61,-75,139,321,353,552,349,162,46
0,150,152,-70,-75,148,323,358,561,360,172,55
5,163,159,-81,-76,159,324,364,571,371,184,65
11,178,168,-91,-77,171,325,370,582,383,196,77
15,192,178,-100,-80,183,327,377,593,395,209,89
18,206,189,-109,-84,196,329,385,604,408,223,102
20,220,201,-117,-89,209,331,393,615,420,236,114
21,233,214,-124,-95,222,334,401,625,432,250,127
20,244,227,-130,-101,234,337,408,635,444,263,138
19,255,239,-135,-108,246,340,414,644,455,275,148
18,265,251,-139,-115,257,343,420,652,465,287,157
16,275,262,-143,-121,267,346,424,659,474,298,164
16,284,272,-147,-127,277,348,427,664,482,308,170
16,293,281,-152,-131,286,349,428,668,489,317,175
17,302,289,-157,-135,295,350,428,671,495,325,179
18,311,297,-162,-137,303,349,426,672,499,332,184
21,320,303,-168,-139,311,348,423,671,503,338,189
24,328,308,-173,-140,317,345,419,669,504,343,194
27,336,313,-179,-141,324,342,413,665,505,346,200
31,343,317,-184,-141,330,338,406,660,504,349,207
34,350,320,-190,-141,335,334,398,653,502,351,215
37,356,323,-194,-141,339,330,389,644,498,352,222
39,361,326,-198,-142,343,326,379,635,494,353,230
40,365,328,-201,-142,346,322,368,624,489,352,236
41,367,330,-202,-143,348,318,357,612,482,351,241
40,367,331,-202,-144,349,314,345,598,475,349,243
37,366,332,-200,-145,348,310,332,584,466,346,243
34,361,331,-196,-146,345,306,318,568,456,341,241
29,354,328,-190,-147,341,301,304,551,443,334,235
24,345,324,-183,-148,334,296,288,532,429,325,227
18,332,318,-174,-148,325,289,271,511,412,313,218
11,318,310,-163,-147,313,282,252,489,394,300,206
5,302,300,-152,-145,300,273,233,466,374,284,194
0,284,287,-140,-141,284,263,213,441,352,266,181
-4,265,273,-128,-136,267,253,192,415,328,247,167
-7,246,257,-117,-130,249,242,172,389,304,226,155
-10,226,240,-105,-123,231,231,152,363,279,205,142
-12,207,222,-94,-115,212,221,133,337,255,184,130
-14,187,204,-83,-107,193,210,114,312,230,163,118
-17,168,186,-72,-99,174,201,98,288,207,142,107
-19,148,169,-61,-92,156,193,83,266,184,121,95
-22,129,152,-49,-85,138,185,69,244,162,101,83
-27,109,136,-37,-79,120,178,57,223,141,81,70
-32,89,121,-24,-74,103,172,45,204,121,62,57
-38,68,106,-11,-70,86,166,35,185,101,43,44
-44,48,93,1,-67,70,161,25,167,83,25,31
-51,29,80,14,-64,55,156,15,150,66,9,17
-59,10,69,28,-62,40,152,6,134,50,-6,4
-66,-7,58,40,-61,26,149,-1,119,35,-20,-8
-72,-23,49,51,-59,14,147,-9,106,22,-33,-19
-79,-37,41,62,-59,3,146,-17,93,9,-45,-30
-84,-49,34,71,-58,-5,147,-24,83,-1,-56,-39
-89,-60,28,78,-57,-14,147,-31,73,-11,-66,-46
-93,-69,23,85,-57,-21,146,-37,64,-21,-75,-53
-96,-77,18,91,-56,-28,144,-42,56,-30,-84,-58
-98,-85,13,96,-54,-34,138,-47,48,-39,-93,-62
-100,-92,8,101,-53,-40,127,-52,40,-47,-101,-66
-102,-100,2,105,-50,-47,112,-56,33,-55,-109,-70
-103,-107,-3,109,-48,-53,92,-60,27,-63,-117,-74
-104,-114,-9,113,-45,-60,66,-63,21,-69,-124,-78
-105,-121,-15,117,-43,-67,37,-65,17,-75,-129,-82
-106,-128,-20,121,-41,-73,6,-67,13,-80,-134,-88
-108,-134,-25,125,-39,-78,-24,-68,10,-83,-138,-93
-110,-139,-28,128,-38,-82,-54,-67,8,-85,-141,-98
-112,-143,-30,132,-39,-86,-81,-67,7,-87,-143,-103
-115,-147,-31,135,-39,-88,-105,-66,6,-88,-144,-107
-117,-150,-31,138,-41,-89,-123,-65,6,-89,-146,-110
-120,-152,-30,140,-42,-90,-137,-65,4,-90,-147,-111
-122,-153,-29,141,-44,-90,-146,-65,2,-91,-149,-111
-123,-153,-29,142,-44,-90,-153,-66,0,-94,-151,-110
-123,-154,-29,142,-45,-90,-156,-68,-2,-96,-153,-108
-122,-153,-29,142,-44,-90,-158,-70,-6,-99,-155,-105
-120,-153,-30,141,-42,-90,-158,-73,-10,-103,-158,-102
-118,-152,-32,139,-40,-91,-158,-75,-13,-106,-160,-100
-115,-152,-34,137,-38,-92,-158,-78,-16,-109,-162,-98
-113,-151,-36,136,-36,-92,-157,-80,-18,-111,-164,-98
-111,-151,-37,135,-34,-93,-156,-81,-19,-112,-164,-98
-110,-150,-38,134,-33,-93,-155,-81,-19,-113,-165,-99
-110,-150,-38,134,-33,-93,-154,-81,-17,-113,-164,-100
-110,-151,-38,134,-33,-93,-152,-80,-16,-113,-164,-102
-111,-151,-38,135,-34,-93,-149,-78,-13,-112,-163,-104
-112,-151,-37,136,-35,-93,-147,-76,-11,-111,-162,-105
-113,-152,-37,137,-36,-93,-145,-75,-9,-110,-162,-106
-114,-153,-37,137,-36,-94,-143,-73,-7,-109,-162,-106
-115,-153,-37,138,-36,-94,-141,-72,-6,-109,-162,-107
-115,-154,-38,139,-36,-95,-140,-71,-5,-109,-163,-107
-114,-155,-39,139,-35,-96,-139,-70,-4,-109,-164,-107
-114,-156,-40,139,-34,-97,-138,-69,-4,-110,-166,-108
-113,-157,-42,139,-33,-98,-138,-69,-5,-110,-167,-109
-113,-158,-42,139,-32,-99,-138,-68,-5,-111,-169,-110
-113,-158,-43,140,-32,-100,-137,-68,-5,-112,-170,-111
-113,-159,-43,140,-32,-101,-137,-67,-6,-112,-170,-112
-113,-159,-43,140,-32,-101,-136,-65,-5,-112,-170,-113
-114,-159,-43,140,-33,-100,-134,-64,-5,-112,-170,-113
-115,-159,-42,141,-33,-100,-133,-62,-4,-111,-168,-114
-115,-158,-41,141,-34,-99,-131,-60,-4,-110,-167,-115
-115,-157,-40,140,-35,-98,-130,-58,-3,-108,-165,-115
-115,-156,-39,139,-36,-96,-129,-57,-2,-107,-162,-115
-115,-154,-37,138,-36,-94,-128,-55,-1,-105,-160,-115
-115,-152,-36,137,-37,-93,-128,-55,0,-104,-158,-114
-114,-149,-34,135,-37,-90,-128,-55,0,-102,-156,-113
-113,-146,-32,134,-38,-88,-128,-55,0,-101,-155,-112
-113,-144,-30,132,-39,-86,-128,-55,0,-101,-154,-111
-113,-142,-28,131,-40,-84,-128,-56,0,-101,-154,-109
-114,-141,-26,131,-41,-83,-127,-58,0,-101,-154,-108
-115,-141,-24,132,-43,-82,-127,-59,0,-102,-154,-107
-118,-142,-23,133,-45,-82,-126,-60,-1,-102,-154,-106
-120,-144,-22,136,-46,-82,-125,-61,-1,-103,-155,-106
-123,-146,-22,138,-48,-83,-124,-62,-2,-104,-155,-107
-125,-149,-23,141,-49,-85,-123,-63,-3,-104,-156,-109
-127,-151,-24,143,-49,-87,-122,-64,-3,-105,-156,-111
-127,-153,-25,144,-48,-88,-121,-64,-3,-105,-156,-113
-126,-154,-27,144,-47,-90,-119,-64,-3,-105,-156,-114
-124,-154,-29,143,-45,-90,-118,-64,-3,-104,-155,-115
-120,-152,-31,140,-42,-91,-118,-64,-2,-104,-155,-115
-115,-149,-34,136,-38,-90,-117,-64,-2,-104,-155,-114
-109,-146,-36,132,-34,-90,-117,-64,-2,-105,-156,-111
-103,-142,-38,127,-30,-89,-118,-65,-3,-106,-157,-108
-97,-139,-40,122,-26,-88,-118,-65,-4,-107,-158,-105
-92,-136,-42,118,-22,-88,-119,-65,-5,-108,-159,-102
-88,-133,-43,115,-20,-87,-120,-66,-7,-110,-160,-99
-86,-132,-44,113,-18,-87,-121,-65,-9,-111,-160,-97
-84,-131,-44,112,-17,-87,-121,-65,-10,-112,-161,-96
-85,-131,-44,112,-17,-87,-122,-65,-11,-112,-161,-96
-86,-131,-43,113,-18,-86,-122,-64,-12,-112,-160,-97
-88,-132,-42,114,-20,-86,-122,-63,-12,-111,-158,-98
-90,-132,-40,116,-22,-85,-122,-62,-11,-110,-157,-100
-93,-133,-38,117,-24,-85,-121,-61,-11,-109,-155,-101
-96,-134,-36,119,-26,-84,-121,-60,-10,-107,-152,-103
-98,-134,-35,120,-28,-84,-122,-60,-9,-106,-151,-103
-99,-135,-34,121,-29,-84,-122,-61,-8,-105,-149,-103
-99,-135,-34,121,-30,-84,-122,-61,-7,-104,-148,-102
-98,-134,-34,120,-29,-84,-122,-62,-7,-103,-147,-100
-97,-133,-35,119,-28,-84,-122,-62,-6,-103,-146,-97
-94,-132,-36,117,-26,-84,-121,-63,-6,-103,-146,-93
-91,-130,-38,114,-23,-84,-120,-63,-5,-103,-146,-90
-87,-128,-39,111,-21,-84,-118,-63,-5,-103,-146,-86
-84,-126,-41,108,-18,-84,-116,-63,-5,-103,-146,-83
-80,-124,-42,106,-16,-83,-114,-62,-5,-104,-145,-81
-78,-123,-43,104,-14,-84,-113,-62,-5,-104,-145,-80
-76,-123,-45,103,-12,-84,-112,-62,-6,-105,-146,-80
-75,-123,-46,103,-11,-85,-112,-63,-8,-107,-146,-81
-75,-125,-47,103,-10,-86,-113,-64,-10,-109,-147,-83
-75,-126,-48,104,-10,-87,-114,-65,-12,-111,-148,-85
-75,-128,-49,105,-9,-89,-116,-67,-15,-113,-149,-87
-76,-129,-50,106,-9,-90,-118,-68,-17,-115,-150,-90
-77,-130,-49,107,-10,-90,-119,-69,-19,-116,-151,-91
-77,-130,-48,107,-10,-89,-119,-69,-20,-116,-151,-93
-78,-129,-47,107,-12,-88,-118,-69,-20,-116,-151,-94
-78,-127,-44,106,-13,-86,-117,-67,-20,-115,-150,-94
-79,-125,-42,106,-15,-83,-115,-65,-19,-113,-149,-94
-81,-123,-39,105,-17,-81,-112,-62,-17,-112,-148,-95
-82,-122,-37,106,-19,-79,-110,-60,-16,-110,-148,-96
-84,-123,-36,107,-21,-79,-109,-58,-15,-110,-148,-98
-86,-126,-36,110,-22,-80,-108,-57,-16,-110,-149,-100
-89,-130,-38,113,-22,-83,-109,-58,-17,-111,-151,-103
-91,-136,-41,117,-21,-88,-111,-60,-19,-114,-154,-107
-92,-142,-46,121,-20,-94,-115,-63,-23,-117,-157,-111
-93,-149,-51,126,-18,-100,-119,-68,-27,-121,-160,-114
-94,-156,-57,129,-15,-107,-124,-73,-31,-125,-163,-117
-93,-161,-62,132,-12,-112,-129,-78,-35,-129,-165,-119
-92,-165,-67,133,-9,-117,-133,-82,-39,-133,-167,-119
-91,-168,-71,134,-6,-120,-137,-86,-43,-136,-168,-118
-90,-168,-73,133,-4,-121,-140,-89,-46,-138,-168,-116
-88,-168,-74,132,-3,-121,-142,-90,-48,-140,-168,-113
-87,-166,-73,130,-3,-120,-142,-90,-49,-140,-167,-109
-86,-163,-72,129,-3,-118,-141,-89,-50,-141,-167,-106
-85,-160,-70,127,-3,-116,-139,-86,-49,-140,-166,-102
-85,-157,-67,125,-4,-113,-136,-82,-49,-139,-165,-100
-84,-154,-65,123,-5,-110,-132,-78,-47,-138,-164,-98
-83,-151,-63,121,-6,-108,-127,-73,-45,-137,-162,-97
-82,-148,-62,119,-5,-106,-122,-69,-42,-135,-161,-98
-80,-146,-61,117,-5,-105,-118,-64,-40,-132,-159,-99
-77,-144,-62,115,-3,-104,-114,-61,-37,-130,-157,-102
-74,-143,-63,112,-1,-104,-111,-59,-35,-128,-155,-104
-71,-142,-65,110,0,-105,-110,-58,-33,-127,-154,-107
-68,-142,-68,109,3,-106,-111,-58,-33,-126,-153,-110
-66,-142,-71,107,6,-108,-113,-60,-34,-126,-153,-112
-63,-143,-74,107,9,-110,-117,-63,-36,-127,-153,-113
-61,-144,-78,106,11,-112,-121,-67,-39,-128,-154,-112
-60,-145,-80,106,13,-114,-126,-72,-43,-131,-156,-111
-59,-147,-83,107,15,-116,-131,-76,-47,-134,-158,-108
-59,-148,-84,107,16,-117,-134,-80,-51,-137,-161,-104
-59,-149,-85,108,16,-118,-137,-82,-54,-140,-163,-100
-60,-149,-84,108,16,-118,-138,-84,-55,-142,-164,-96
-61,-149,-83,109,15,-117,-137,-83,-56,-143,-164,-93
-62,-148,-81,109,13,-115,-135,-82,-54,-143,-164,-90
-63,-146,-78,109,11,-113,-132,-79,-52,-142,-164,-88
-65,-145,-75,109,9,-111,-127,-76,-49,-141,-162,-88
-65,-143,-73,108,7,-109,-123,-72,-45,-138,-161,-89
-65,-141,-71,107,7,-107,-119,-69,-41,-136,-160,-91
-65,-140,-70,106,6,-106,-116,-67,-39,-134,-159,-94
-63,-139,-71,105,7,-105,-114,-66,-37,-133,-158,-98
-61,-138,-73,104,9,-106,-113,-66,-37,-132,-159,-102
-58,-139,-76,102,12,-108,-113,-67,-37,-132,-160,-107
-55,-139,-80,101,15,-110,-115,-69,-40,-134,-161,-111
-52,-141,-84,101,19,-113,-118,-71,-43,-136,-163,-114
-50,-143,-88,101,23,-116,-121,-74,-47,-138,-165,-117
-48,-145,-93,101,26,-120,-124,-77,-51,-141,-168,-120
-47,-148,-96,102,28,-123,-128,-80,-55,-144,-169,-121
-47,-150,-98,102,29,-125,-131,-82,-59,-146,-171,-121
-47,-151,-99,103,30,-126,-133,-83,-62,-149,-172,-120
-48,-152,-99,104,29,-126,-134,-83,-64,-150,-172,-118
-49,-151,-97,104,28,-125,-134,-81,-65,-151,-172,-115
-50,-150,-95,104,26,-123,-133,-79,-65,-151,-171,-112
-51,-147,-91,103,24,-120,-130,-76,-63,-149,-169,-109
-51,-144,-88,102,22,-117,-127,-73,-61,-148,-167,-106
-52,-141,-84,100,20,-113,-124,-69,-58,-145,-165,-103
-52,-137,-80,99,18,-110,-120,-65,-54,-143,-163,-101
-52,-134,-78,98,16,-107,-117,-62,-51,-140,-162,-100
-52,-133,-76,97,15,-105,-114,-60,-48,-138,-160,-100
-52,-132,-75,96,15,-104,-112,-59,-46,-136,-159,-101
-52,-132,-75,97,15,-105,-111,-59,-45,-135,-159,-103
-52,-134,-77,97,16,-106,-111,-60,-45,-135,-159,-106
-52,-137,-79,99,17,-109,-111,-62,-47,-136,-159,-109
-52,-140,-83,100,19,-112,-112,-64,-49,-137,-160,-112
-52,-144,-87,102,21,-116,-113,-66,-52,-139,-161,-115
-51,-147,-91,103,23,-120,-114,-68,-55,-140,-162,-118
-51,-151,-95,105,26,-123,-116,-70,-58,-142,-163,-120
-50,-154,-98,106,28,-126,-117,-71,-61,-144,-164,-121
-50,-156,-101,107,29,-129,-118,-72,-64,-145,-165,-121
-49,-157,-103,107,30,-130,-118,-73,-65,-146,-166,-120
-49,-157,-103,107,31,-131,-119,-73,-67,-147,-167,-118
-48,-156,-103,106,31,-130,-119,-73,-67,-147,-167,-116
-48,-154,-102,105,31,-128,-119,-72,-67,-146,-167,-112
-47,-151,-99,103,30,-126,-118,-72,-66,-145,-166,-109
-46,-147,-96,101,29,-122,-117,-71,-64,-144,-165,-105
-46,-143,-93,98,27,-119,-116,-69,-62,-142,-163,-102
-45,-139,-89,96,25,-114,-113,-67,-59,-139,-160,-99
-45,-135,-85,94,24,-111,-110,-64,-55,-137,-157,-98
-45,-131,-81,92,22,-107,-106,-61,-51,-134,-154,-96
-46,-129,-78,91,20,-104,-103,-57,-47,-131,-151,-96
-47,-128,-75,92,18,-102,-99,-54,-43,-128,-148,-97
-49,-128,-73,93,16,-102,-96,-50,-39,-126,-146,-99
-51,-129,-73,94,15,-102,-94,-48,-36,-124,-145,-100
-53,-131,-73,96,14,-103,-92,-46,-35,-124,-144,-102
-55,-133,-73,98,13,-105,-91,-45,-34,-124,-145,-103
-55,-135,-75,99,14,-106,-92,-46,-35,-124,-147,-104
-55,-136,-76,100,15,-108,-92,-46,-36,-126,-149,-104
-53,-136,-78,99,16,-108,-93,-47,-38,-127,-150,-103
-50,-134,-79,97,18,-108,-94,-48,-40,-128,-152,-100
-46,-131,-79,93,21,-106,-93,-48,-42,-129,-153,-97
-42,-125,-78,88,22,-103,-92,-47,-42,-129,-152,-94
-37,-118,-76,82,24,-98,-89,-44,-41,-127,-151,-90
-32,-110,-73,75,25,-92,-84,-41,-39,-125,-148,-87
-27,-101,-68,68,24,-85,-78,-36,-36,-121,-144,-84
-23,-91,-62,61,23,-77,-72,-31,-31,-117,-140,-81
-21,-82,-56,55,21,-69,-65,-26,-27,-112,-135,-79
-19,-73,-49,50,19,-61,-59,-23,-22,-108,-131,-77
-18,-65,-43,46,16,-54,-55,-22,-18,-104,-126,-75
-18,-59,-37,43,13,-48,-53,-23,-16,-101,-123,-74
-19,-55,-33,41,10,-43,-54,-27,-16,-99,-121,-73
-20,-52,-29,40,7,-40,-58,-33,-17,-98,-120,-72
-21,-52,-28,41,5,-39,-65,-42,-20,-99,-120,-71
-22,-52,-27,42,5,-39,-74,-52,-25,-101,-121,-69
-23,-54,-28,43,5,-40,-85,-62,-31,-104,-122,-68
-23,-56,-31,44,6,-43,-97,-72,-36,-107,-123,-67
-22,-58,-34,44,9,-46,-109,-81,-42,-111,-125,-66
-20,-60,-38,45,12,-49,-119,-88,-46,-114,-126,-65
-17,-62,-42,44,15,-52,-128,-92,-50,-116,-126,-64
-13,-62,-45,42,19,-55,-134,-93,-51,-117,-126,-62
-9,-62,-49,40,23,-56,-138,-92,-51,-117,-125,-61
-5,-61,-52,37,27,-58,-139,-89,-50,-117,-124,-60
-1,-60,-55,35,31,-59,-137,-85,-48,-115,-122,-59
1,-59,-57,33,34,-60,-134,-80,-45,-114,-120,-58
3,-60,-59,32,36,-61,-130,-76,-43,-112,-119,-58
4,-61,-61,32,37,-62,-126,-72,-41,-111,-118,-59
4,-64,-64,34,39,-65,-122,-70,-40,-110,-118,-61
3,-68,-67,36,39,-68,-119,-69,-40,-110,-118,-63
0,-73,-70,40,39,-73,-117,-70,-41,-111,-119,-65
-2,-80,-73,45,39,-77,-116,-71,-43,-113,-121,-68
-5,-87,-76,50,39,-82,-115,-74,-45,-116,-123,-71
-9,-93,-79,55,39,-87,-116,-77,-48,-118,-125,-74
-12,-100,-82,60,39,-92,-117,-80,-51,-121,-128,-76
-16,-105,-85,64,38,-96,-118,-82,-53,-123,-130,-78
-19,-110,-87,68,38,-99,-119,-84,-55,-126,-132,-80
-21,-114,-88,72,37,-102,-119,-85,-57,-127,-134,-82
-24,-118,-89,75,36,-104,-119,-85,-58,-129,-136,-84
-26,-121,-90,78,35,-106,-118,-84,-58,-130,-138,-88
-29,-125,-90,81,34,-109,-117,-82,-58,-131,-140,-92
-32,-129,-92,85,33,-111,-116,-80,-59,-132,-142,-97
-36,-134,-93,89,33,-115,-115,-78,-59,-133,-145,-103
-39,-140,-96,94,32,-119,-114,-76,-61,-134,-149,-110
-42,-147,-99,99,32,-124,-113,-75,-63,-137,-153,-116
-46,-154,-103,104,33,-130,-113,-75,-66,-140,-157,-123
-49,-162,-107,110,33,-135,-113,-75,-70,-143,-162,-128
-51,-169,-112,114,35,-141,-113,-77,-75,-147,-166,-133
-52,-175,-117,118,36,-147,-114,-80,-80,-151,-171,-135
-53,-181,-121,121,38,-152,-115,-83,-86,-155,-175,-136
-53,-185,-125,123,40,-156,-117,-87,-91,-160,-178,-135
-53,-188,-129,124,42,-159,-118,-90,-96,-163,-181,-132
-52,-189,-132,125,44,-161,-120,-93,-100,-167,-184,-129
-50,-190,-134,124,45,-162,-122,-95,-104,-169,-185,-125
-49,-189,-135,123,47,-163,-124,-96,-107,-171,-186,-121
-47,-188,-136,122,48,-163,-125,-96,-108,-173,-187,-117
-46,-187,-136,120,49,-162,-127,-95,-109,-173,-187,-115
-45,-186,-136,119,49,-161,-129,-94,-109,-173,-186,-114
-45,-184,-135,119,49,-160,-130,-92,-108,-172,-185,-114
-45,-184,-133,118,48,-159,-131,-90,-107,-171,-184,-116
-46,-183,-132,119,46,-157,-131,-87,-105,-170,-183,-118
-48,-183,-130,120,44,-157,-130,-84,-103,-168,-182,-121
-51,-184,-128,121,42,-156,-128,-81,-100,-166,-180,-125
-54,-185,-127,123,40,-156,-126,-78,-97,-164,-179,-128
-56,-187,-126,125,38,-156,-124,-76,-95,-162,-177,-132
-59,-189,-125,128,37,-158,-122,-74,-93,-161,-176,-136
-61,-192,-126,130,36,-159,-120,-73,-92,-160,-175,-139
-62,-195,-127,132,36,-161,-119,-72,-91,-160,-175,-141
-63,-197,-128,134,36,-163,-119,-73,-92,-160,-175,-143
-63,-199,-130,135,37,-165,-119,-75,-94,-162,-176,-144
-63,-200,-132,135,38,-167,-121,-77,-97,-164,-178,-144
-61,-200,-133,134,40,-168,-122,-79,-101,-167,-180,-142
-59,-199,-134,133,41,-168,-124,-81,-104,-170,-182,-140
-56,-196,-134,130,43,-167,-126,-83,-108,-172,-184,-137
-53,-193,-134,127,44,-165,-126,-84,-110,-174,-186,-134
-50,-189,-133,123,46,-162,-126,-84,-112,-175,-187,-130
-47,-184,-132,119,47,-160,-125,-83,-112,-176,-187,-126
-44,-180,-130,116,47,-156,-124,-82,-112,-175,-187,-123
-41,-175,-129,112,48,-154,-121,-80,-110,-173,-186,-120
-39,-172,-127,110,48,-151,-119,-78,-107,-170,-184,-118
-38,-170,-126,108,48,-149,-117,-77,-105,-167,-182,-117
-38,-168,-125,108,47,-148,-116,-77,-102,-164,-179,-117
-39,-169,-125,108,47,-148,-116,-77,-100,-161,-176,-117
-40,-170,-125,109,47,-149,-117,-78,-99,-158,-173,-118
-41,-173,-127,111,47,-151,-119,-80,-98,-157,-171,-119
-41,-176,-130,113,47,-154,-120,-81,-98,-156,-171,-123
-42,-181,-133,116,49,-158,-120,-80,-97,-155,-171,-127
-43,-186,-138,118,51,-162,-118,-76,-95,-156,-174,-135
-43,-190,-142,121,53,-167,-112,-68,-91,-156,-179,-145
-43,-195,-146,123,54,-171,-100,-54,-83,-156,-187,-157
-43,-197,-149,125,55,-174,-83,-32,-70,-153,-196,-172
-44,-198,-148,125,55,-174,-60,-2,-50,-148,-205,-187
-44,-194,-145,123,53,-170,-31,34,-24,-137,-211,-202
-44,-184,-136,118,49,-160,0,77,8,-119,-212,-213
-41,-166,-121,108,42,-144,32,123,48,-93,-204,-216
-35,-137,-98,90,34,-118,61,167,94,-55,-181,-209
-25,-94,-66,64,23,-80,82,205,142,-6,-138,-185
-8,-35,-24,25,10,-30,92,230,191,57,-71,-142
16,42,28,-25,-3,35,85,237,239,135,23,-76
49,140,92,-90,-18,116,59,222,282,227,147,14
91,258,168,-170,-36,213,12,182,318,332,302,131
140,393,255,-263,-54,324,-55,115,346,447,482,273
195,544,350,-365,-74,446,-142,24,363,568,683,435
253,702,450,-473,-95,576,-243,-87,370,690,895,611
310,861,551,-581,-117,706,-355,-215,367,806,1107,794
363,1010,648,-682,-140,829,-470,-351,351,908,1306,974
406,1141,736,-769,-161,938,-585,-488,324,990,1478,1140
437,1244,807,-836,-182,1025,-691,-619,285,1042,1612,1282
453,1310,858,-877,-199,1083,-786,-739,232,1060,1695,1391
451,1334,884,-888,-213,1108,-865,-842,166,1038,1721,1460
432,1313,883,-868,-222,1097,-926,-926,85,975,1686,1484
396,1249,854,-818,-226,1051,-968,-989,-7,871,1591,1463
347,1145,800,-741,-224,972,-992,-1032,-112,732,1443,1398
287,1009,724,-644,-216,866,-998,-1055,-224,564,1251,1295
222,850,631,-532,-202,740,-987,-1060,-338,378,1029,1162
155,680,527,-413,-184,603,-963,-1049,-448,186,791,1009
91,508,419,-295,-162,463,-927,-1022,-547,0,554,845
33,344,314,-185,-138,328,-881,-982,-628,-167,330,681
-14,198,215,-87,-113,206,-828,-931,-687,-309,132,525
-52,73,129,-6,-88,100,-769,-869,-721,-419,-32,384
-79,-26,56,56,-65,14,-706,-800,-728,-492,-158,262
-96,-100,0,102,-45,-50,-642,-724,-710,-530,-246,162
-105,-151,-42,131,-28,-97,-577,-645,-669,-537,-299,83
-106,-181,-71,147,-13,-126,-513,-565,-613,-517,-323,23
-102,-195,-89,152,-2,-142,-452,-485,-545,-479,-323,-19
-94,-197,-98,150,5,-148,-395,-410,-472,-430,-308,-49
-86,-192,-102,143,11,-147,-342,-339,-399,-375,-283,-68
-77,-182,-101,133,16,-142,-293,-275,-330,-322,-255,-80
-68,-172,-99,124,19,-136,-251,-219,-269,-273,-227,-87
-61,-162,-96,116,21,-129,-213,-170,-215,-231,-203,-91
-56,-154,-94,109,23,-124,-181,-128,-171,-196,-182,-93
-51,-148,-93,104,24,-121,-154,-93,-136,-170,-167,-94
-48,-144,-92,100,25,-119,-131,-63,-107,-150,-155,-93
-45,-142,-92,98,27,-117,-112,-39,-85,-135,-146,-92
-43,-140,-92,95,28,-116,-96,-20,-68,-124,-140,-90
-40,-138,-92,93,29,-116,-83,-3,-53,-116,-136,-88
-37,-135,-92,90,31,-114,-72,9,-42,-109,-133,-86
-34,-132,-92,87,32,-112,-62,21,-32,-103,-130,-84
-31,-127,-91,83,33,-110,-53,31,-23,-97,-127,-83
-27,-123,-89,79,34,-107,-45,39,-14,-91,-124,-83
-24,-117,-87,75,35,-103,-38,47,-7,-85,-121,-84
-21,-112,-85,71,35,-100,-32,54,0,-79,-118,-85
-19,-108,-83,68,35,-97,-27,59,6,-73,-115,-87
-17,-105,-81,65,35,-94,-23,65,11,-67,-113,-89
-17,-103,-80,64,35,-93,-20,69,16,-63,-110,-92
-16,-102,-79,63,35,-92,-18,72,21,-58,-108,-95
-17,-102,-79,63,34,-92,-17,75,24,-55,-107,-97
-18,-102,-79,64,34,-92,-17,78,28,-52,-105,-99
-19,-103,-79,65,33,-92,-16,80,31,-49,-104,-100
-19,-103,-79,65,33,-92,-16,82,34,-46,-102,-100
-19,-102,-78,65,33,-91,-14,85,38,-43,-100,-100
-19,-100,-77,63,33,-90,-12,87,42,-39,-97,-99
-17,-97,-74,61,32,-87,-9,91,47,-35,-94,-98
-15,-92,-72,57,32,-83,-5,95,52,-30,-90,-96
-12,-86,-69,53,32,-78,0,99,59,-24,-86,-95
-9,-79,-66,48,32,-74,4,105,65,-17,-81,-94
-5,-73,-63,43,33,-69,10,110,72,-11,-76,-93
-1,-67,-61,38,34,-65,16,116,78,-5,-72,-93
2,-61,-59,33,35,-61,21,121,84,0,-68,-93
5,-57,-59,30,36,-59,26,126,89,4,-65,-93
8,-55,-59,27,37,-58,29,129,92,7,-63,-93
10,-54,-60,25,39,-58,31,132,94,9,-62,-94
12,-54,-62,25,40,-59,32,133,95,9,-62,-93
13,-55,-63,25,41,-60,32,133,95,9,-63,-92
12,-57,-65,26,42,-62,30,132,94,8,-64,-91
12,-59,-67,27,43,-64,28,130,93,6,-65,-88
11,-61,-67,29,42,-65,25,129,92,5,-65,-85
10,-62,-67,30,42,-66,22,128,92,4,-66,-81
9,-62,-67,30,41,-66,20,127,93,5,-65,-77
9,-61,-65,30,41,-64,19,129,95,6,-63,-73
9,-58,-63,28,40,-62,19,131,100,9,-60,-68
11,-54,-60,25,40,-58,21,136,106,13,-55,-64
13,-48,-57,21,39,-54,24,142,113,18,-50,-60
16,-41,-53,16,39,-48,29,149,121,25,-44,-56
19,-34,-49,10,38,-43,35,158,131,32,-37,-53
22,-26,-45,5,38,-37,41,167,140,39,-30,-51
25,-19,-40,0,37,-31,48,177,150,47,-23,-49
26,-13,-36,-3,35,-25,55,186,159,55,-16,-48
27,-7,-32,-6,33,-20,62,195,167,62,-10,-48
27,-4,-28,-8,31,-16,67,203,175,69,-6,-48
27,-1,-25,-8,29,-13,72,209,181,75,-2,-49
26,0,-23,-8,27,-12,76,215,186,80,0,-49
25,0,-21,-8,26,-11,78,218,190,84,1,-50
25,0,-21,-8,26,-11,80,220,193,88,2,-51
25,0,-22,-8,27,-11,80,221,195,91,2,-51
27,0,-22,-9,28,-12,79,221,197,93,3,-51
29,1,-23,-10,29,-11,78,221,200,95,4,-50
32,3,-24,-13,31,-11,77,222,203,98,5,-48
35,7,-24,-16,33,-9,77,223,207,101,8,-45
39,12,-22,-20,34,-6,77,226,213,106,12,-42
42,17,-20,-25,34,-1,78,231,220,111,17,-38
45,24,-16,-30,34,3,80,238,228,117,23,-34
47,32,-11,-35,32,9,83,247,238,125,30,-29
49,40,-6,-40,30,17,87,257,249,134,37,-25
51,48,0,-45,27,24,92,268,260,143,45,-21
52,57,7,-51,24,32,97,280,272,153,53,-16
54,66,14,-56,22,40,103,292,285,164,61,-12
56,74,20,-61,19,48,109,305,297,175,69,-8
57,83,27,-66,16,56,115,316,310,186,76,-5
59,91,33,-71,14,64,121,328,322,198,84,-1
61,99,39,-76,11,71,127,339,335,209,91,1
62,107,45,-81,9,78,133,349,347,220,98,4
63,114,51,-85,7,84,139,359,359,231,105,7
64,121,57,-89,4,91,144,370,372,243,112,10
64,127,63,-92,1,97,150,380,385,254,120,13
64,133,70,-95,-1,104,155,390,397,265,127,15
63,140,77,-97,-5,110,161,400,411,276,135,17
62,146,84,-100,-9,117,167,411,424,287,143,20
62,154,92,-103,-13,124,173,423,438,299,152,22
61,162,101,-107,-18,132,180,434,453,312,162,24
61,171,110,-112,-22,141,188,447,468,325,172,27
63,182,119,-117,-26,150,196,459,483,338,182,31
65,193,129,-124,-30,160,204,471,498,352,193,36
68,206,138,-132,-33,171,211,482,513,365,204,41
72,219,148,-141,-36,182,219,493,526,378,215,48
77,233,157,-150,-38,193,225,502,538,391,226,56
82,248,165,-160,-39,204,230,510,549,402,237,64
88,262,173,-170,-41,215,234,517,559,412,247,74
93,275,181,-180,-42,226,237,523,567,422,257,84
99,288,189,-189,-43,236,238,528,575,430,266,95
103,301,198,-198,-45,247,239,532,582,438,275,106
107,313,207,-206,-48,257,239,537,589,446,284,117
109,324,216,-213,-51,268,239,541,596,454,293,127
111,336,226,-220,-55,279,240,546,603,462,303,137
112,347,236,-226,-60,290,241,551,611,470,312,146
113,357,247,-232,-65,301,242,556,618,478,321,154
114,368,257,-238,-69,311,242,559,624,486,331,161
115,378,266,-244,-74,321,243,562,629,494,340,167
116,387,275,-250,-77,330,243,563,633,501,348,173
119,396,282,-256,-79,338,243,563,635,506,355,177
121,405,288,-261,-81,345,241,560,635,511,361,182
124,412,293,-266,-82,351,238,555,633,514,367,186
127,419,297,-271,-82,356,234,549,630,516,371,190
129,424,300,-274,-83,361,230,541,625,516,374,195
130,429,304,-277,-85,366,224,532,618,516,377,200
130,433,308,-279,-87,370,219,522,611,514,379,205
129,437,313,-280,-90,374,213,510,602,511,381,211
126,439,318,-280,-94,378,206,498,593,508,382,216
122,440,323,-279,-99,381,199,485,582,503,382,221
117,441,328,-276,-104,384,192,471,570,498,382,225
112,439,332,-273,-108,385,184,455,556,490,380,229
106,436,334,-269,-112,385,175,439,540,481,377,231
101,432,335,-264,-115,383,165,420,523,470,372,231
97,425,333,-259,-116,379,154,401,503,457,366,230
93,417,328,-253,-115,372,142,380,482,442,357,227
91,407,320,-247,-113,363,129,358,459,425,346,221
89,395,309,-240,-108,352,116,336,434,406,334,214
89,381,296,-233,-101,338,103,314,409,385,320,205
89,367,281,-225,-94,323,90,292,384,363,304,194
88,350,265,-217,-86,307,78,270,358,341,288,182
88,333,247,-208,-77,289,66,250,332,319,270,170
86,314,230,-197,-69,271,56,230,307,296,252,156
84,295,213,-186,-62,252,46,212,283,273,233,142
80,274,196,-173,-55,233,37,194,259,251,213,128
74,252,179,-160,-50,214,28,178,236,229,194,114
68,230,163,-145,-45,195,20,162,213,207,175,100
60,208,148,-130,-42,177,13,147,192,186,156,86
52,185,134,-115,-38,159,5,133,171,165,137,73
43,163,120,-99,-36,141,-1,120,151,145,119,59
35,141,107,-84,-33,124,-8,107,132,126,102,46
27,120,94,-70,-31,107,-15,96,114,108,86,34
20,101,82,-56,-28,92,-22,85,97,91,70,22
13,82,70,-44,-26,77,-27,76,82,75,55,11
8,66,58,-33,-23,63,-32,67,68,60,41,1
4,50,47,-23,-19,50,-37,59,55,46,28,-7
1,37,36,-15,-15,37,-40,52,43,33,14,-15
0,24,26,-7,-10,25,-43,45,31,19,1,-22
0,12,15,-1,-5,13,-46,39,20,7,-11,-28
0,1,4,4,0,2,-48,33,9,-5,-24,-33
0,-8,-5,9,5,-7,-50,27,-1,-17,-36,-38
0,-19,-16,14,10,-18,-52,21,-10,-28,-47,-43
0,-28,-25,18,15,-27,-54,16,-20,-38,-57,-48
0,-37,-34,23,19,-36,-56,10,-28,-47,-66,-53
0,-45,-41,28,23,-44,-58,5,-36,-55,-73,-58
-1,-53,-47,32,26,-51,-59,1,-42,-62,-79,-62
-3,-59,-52,36,27,-56,-61,-2,-47,-66,-83,-66
-5,-64,-56,39,28,-60,-62,-5,-51,-70,-86,-70
-6,-68,-59,42,29,-63,-63,-7,-53,-72,-88,-74
-7,-71,-60,44,29,-66,-64,-8,-55,-73,-89,-76
-8,-73,-61,45,29,-67,-64,-9,-56,-74,-90,-79
-9,-74,-62,46,29,-68,-65,-10,-56,-75,-91,-81
-9,-75,-63,46,30,-69,-66,-11,-57,-75,-91,-83
-8,-76,-65,46,31,-70,-66,-11,-57,-76,-93,-85
-8,-77,-66,47,32,-72,-67,-12,-58,-78,-95,-86
-7,-79,-69,47,33,-74,-68,-13,-59,-80,-97,-88
-7,-81,-71,48,34,-76,-69,-14,-60,-82,-100,-90
-6,-84,-74,49,36,-79,-70,-14,-61,-84,-102,-91
-6,-87,-76,51,37,-82,-70,-15,-63,-87,-105,-93
-7,-89,-78,52,38,-84,-71,-15,-64,-89,-108,-94
-7,-91,-80,53,39,-86,-71,-15,-66,-91,-110,-95
-6,-92,-82,53,40,-87,-72,-14,-67,-92,-111,-95
-6,-92,-82,53,41,-88,-72,-14,-68,-92,-112,-96
-5,-92,-83,53,41,-88,-72,-14,-68,-92,-113,-96
-4,-91,-83,51,42,-87,-73,-14,-69,-92,-113,-97
-2,-89,-83,50,43,-87,-74,-14,-69,-92,-113,-97
0,-87,-84,48,44,-86,-76,-15,-70,-92,-113,-98
0,-86,-84,47,45,-86,-78,-16,-71,-92,-113,-99
2,-86,-85,46,46,-86,-80,-18,-72,-93,-113,-100
3,-86,-86,45,47,-86,-82,-20,-74,-94,-113,-101
3,-87,-88,45,48,-88,-83,-23,-76,-96,-114,-102
3,-88,-89,46,49,-89,-85,-25,-79,-98,-115,-103
2,-91,-91,47,49,-91,-86,-27,-81,-101,-116,-104
1,-93,-92,49,49,-93,-87,-29,-84,-103,-117,-104
0,-95,-93,50,50,-94,-88,-29,-86,-106,-118,-104
0,-96,-94,51,50,-95,-88,-29,-87,-107,-118,-103
0,-97,-95,52,50,-96,-88,-29,-88,-108,-118,-103
0,-97,-95,51,50,-96,-88,-27,-87,-109,-118,-102
1,-97,-95,51,50,-95,-88,-25,-86,-108,-118,-101
1,-95,-94,50,50,-94,-87,-23,-84,-107,-118,-100
1,-94,-93,49,49,-93,-85,-20,-81,-106,-117,-100
0,-92,-90,49,48,-91,-84,-17,-78,-104,-115,-100
0,-91,-87,49,45,-89,-82,-15,-75,-101,-114,-100
-3,-90,-84,50,42,-86,-80,-12,-73,-99,-112,-100
-6,-89,-79,51,39,-84,-78,-10,-70,-96,-110,-100
-10,-89,-75,53,34,-82,-76,-8,-68,-94,-108,-99
-14,-89,-70,55,30,-80,-74,-7,-67,-92,-106,-99
-18,-89,-66,57,26,-77,-72,-6,-66,-91,-104,-98
-21,-88,-63,59,23,-76,-71,-5,-66,-90,-103,-96
-23,-87,-60,59,21,-74,-70,-4,-67,-90,-102,-94
-24,-86,-58,59,19,-73,-69,-4,-68,-90,-102,-92
-23,-85,-57,58,19,-71,-68,-4,-69,-90,-103,-89
-21,-83,-57,56,20,-70,-68,-3,-70,-91,-104,-87
-18,-80,-58,53,22,-69,-68,-3,-71,-92,-105,-85
-15,-78,-59,51,24,-69,-67,-3,-72,-93,-107,-83
-13,-77,-60,49,26,-68,-68,-4,-72,-94,-109,-82
-11,-75,-61,47,27,-68,-68,-4,-73,-95,-110,-82
-10,-75,-62,46,28,-69,-68,-5,-73,-96,-111,-83
-10,-76,-63,47,29,-70,-69,-7,-73,-96,-112,-84
-11,-78,-64,48,29,-71,-71,-8,-73,-97,-112,-85
-12,-80,-64,50,28,-73,-72,-10,-73,-98,-112,-86
-15,-83,-65,53,28,-75,-74,-11,-74,-99,-111,-88
-17,-86,-66,55,27,-76,-75,-12,-74,-99,-111,-89
-19,-88,-66,58,26,-77,-76,-13,-74,-99,-110,-89
-21,-90,-66,59,25,-78,-77,-13,-74,-99,-109,-89
-22,-90,-65,60,25,-78,-77,-13,-74,-98,-108,-89
-22,-90,-65,60,24,-77,-77,-12,-73,-98,-107,-88
-22,-88,-63,59,23,-76,-75,-12,-72,-96,-105,-87
-22,-86,-62,58,23,-74,-74,-11,-71,-94,-104,-86
-21,-84,-60,56,22,-72,-72,-10,-69,-93,-102,-85
-20,-81,-58,55,21,-69,-70,-9,-68,-90,-101,-84
-20,-78,-56,53,21,-67,-68,-8,-66,-89,-99,-83
-19,-76,-54,52,20,-65,-67,-8,-64,-87,-98,-83
-18,-74,-54,50,20,-63,-66,-8,-63,-85,-97,-83
-17,-72,-53,49,21,-63,-67,-8,-62,-85,-97,-83
-15,-71,-54,48,21,-62,-68,-10,-62,-85,-97,-83
-14,-71,-55,47,23,-63,-71,-11,-62,-85,-98,-84
-12,-71,-56,46,24,-63,-74,-13,-64,-87,-99,-84
-11,-72,-58,46,25,-65,-78,-16,-66,-89,-100,-84
-11,-74,-60,46,27,-67,-82,-19,-69,-92,-102,-84
-11,-76,-63,48,28,-69,-86,-22,-72,-94,-104,-84
-12,-79,-64,50,28,-71,-90,-25,-75,-97,-107,-84
-14,-82,-65,52,28,-73,-93,-27,-78,-100,-108,-85
-16,-85,-66,55,26,-75,-94,-28,-80,-101,-110,-85
-20,-88,-65,58,25,-76,-94,-28,-81,-102,-110,-85
-23,-90,-64,61,23,-77,-92,-27,-81,-102,-109,-86
-26,-92,-63,63,21,-77,-89,-25,-80,-101,-107,-86
-28,-92,-61,64,19,-76,-85,-23,-78,-99,-104,-86
-29,-92,-59,65,17,-75,-81,-19,-76,-97,-101,-85
-29,-91,-58,64,17,-74,-77,-17,-73,-95,-98,-85
-28,-89,-57,63,17,-73,-73,-14,-72,-94,-95,-84
-26,-88,-58,61,18,-73,-71,-13,-71,-93,-93,-83
-23,-86,-59,59,20,-73,-70,-14,-72,-94,-92,-81
-20,-85,-61,57,23,-73,-70,-15,-74,-95,-93,-80
-17,-85,-64,56,26,-74,-71,-18,-77,-98,-94,-79
-14,-85,-67,54,29,-76,-74,-22,-80,-101,-97,-78
-12,-86,-71,54,32,-78,-77,-26,-85,-105,-100,-78
-10,-88,-74,53,34,-81,-81,-31,-89,-108,-104,-78
-9,-89,-77,53,36,-83,-85,-34,-93,-112,-107,-78
-8,-91,-80,54,38,-85,-89,-38,-97,-114,-111,-78
-7,-92,-82,54,39,-87,-92,-40,-99,-116,-113,-79
-7,-93,-84,55,40,-88,-94,-41,-101,-117,-115,-80
-7,-94,-85,55,41,-89,-97,-41,-102,-117,-116,-81
-7,-95,-86,56,41,-90,-98,-41,-102,-117,-116,-82
-7,-96,-87,56,41,-91,-99,-40,-102,-117,-116,-83
-7,-97,-87,56,42,-92,-100,-39,-102,-116,-116,-84
-7,-98,-88,56,43,-93,-100,-38,-101,-116,-115,-85
-7,-99,-90,57,43,-95,-100,-38,-101,-115,-115,-87
-6,-101,-92,58,45,-96,-101,-38,-101,-115,-115,-88
-6,-103,-94,58,46,-99,-102,-39,-102,-116,-115,-90
-5,-105,-97,59,48,-101,-103,-41,-103,-117,-116,-92
-4,-107,-100,59,50,-104,-104,-43,-105,-119,-118,-94
-2,-109,-103,60,52,-106,-106,-46,-107,-121,-120,-95
-1,-110,-106,60,55,-109,-108,-49,-109,-123,-122,-97
0,-111,-109,59,57,-111,-110,-51,-111,-126,-124,-99
3,-112,-112,58,60,-112,-111,-53,-113,-128,-125,-100
5,-112,-114,57,62,-113,-112,-54,-114,-129,-126,-100
7,-111,-115,55,64,-113,-112,-54,-115,-130,-127,-101
8,-109,-115,54,65,-112,-111,-53,-115,-130,-127,-101
10,-108,-115,52,65,-111,-109,-51,-114,-129,-126,-101
10,-106,-113,51,64,-110,-107,-49,-113,-128,-125,-101
10,-105,-112,51,63,-108,-104,-46,-111,-126,-123,-102
8,-104,-110,51,62,-107,-102,-45,-110,-124,-122,-102
7,-105,-109,52,60,-106,-101,-43,-109,-123,-121,-103
5,-106,-108,54,58,-107,-100,-43,-109,-123,-121,-103
3,-108,-108,56,57,-108,-101,-44,-110,-123,-122,-104
2,-110,-109,57,57,-109,-102,-46,-111,-125,-124,-104
1,-113,-110,59,58,-111,-105,-49,-114,-127,-126,-103
1,-115,-113,60,59,-114,-109,-53,-117,-130,-129,-103
2,-116,-115,60,61,-116,-113,-56,-121,-133,-132,-102
4,-117,-117,60,63,-117,-116,-60,-124,-136,-135,-101
6,-116,-119,58,65,-118,-119,-62,-127,-138,-137,-99
9,-115,-121,56,67,-118,-122,-64,-128,-140,-138,-98
12,-112,-121,54,69,-117,-123,-64,-129,-140,-138,-97
14,-110,-121,51,70,-116,-124,-63,-128,-140,-138,-96
15,-108,-120,50,71,-114,-123,-62,-127,-138,-136,-96
16,-106,-119,49,71,-113,-122,-59,-124,-136,-134,-96
15,-105,-118,49,70,-112,-121,-57,-122,-134,-132,-97
14,-106,-117,50,68,-112,-120,-54,-119,-132,-129,-97
11,-108,-116,52,66,-112,-118,-52,-117,-130,-127,-98
7,-111,-116,55,64,-114,-118,-51,-115,-129,-125,-99
3,-114,-115,59,62,-115,-117,-50,-113,-128,-123,-99
0,-118,-115,63,60,-117,-118,-51,-113,-128,-122,-100
-4,-122,-115,67,57,-119,-118,-52,-113,-128,-121,-100
-8,-125,-114,71,55,-120,-119,-53,-113,-129,-120,-101
-10,-128,-114,74,54,-122,-120,-54,-114,-129,-120,-101
-12,-129,-114,75,53,-122,-121,-56,-115,-130,-120,-101
-13,-130,-113,76,52,-122,-121,-57,-116,-130,-120,-100
-14,-130,-113,76,51,-122,-121,-58,-116,-130,-120,-100
-13,-129,-113,75,52,-121,-121,-58,-117,-130,-120,-99
-12,-127,-112,74,52,-120,-120,-58,-117,-129,-121,-99
-10,-125,-112,72,53,-119,-118,-57,-116,-129,-121,-98
-7,-123,-112,69,54,-118,-117,-57,-116,-128,-121,-98
-5,-121,-113,67,56,-117,-116,-56,-115,-128,-122,-97
-2,-119,-114,64,58,-116,-115,-56,-115,-128,-123,-97
0,-117,-115,62,60,-116,-116,-57,-115,-128,-123,-96
2,-116,-116,60,62,-116,-117,-58,-115,-128,-124,-96
4,-115,-117,59,63,-116,-120,-59,-116,-128,-126,-97
5,-116,-119,59,65,-117,-123,-61,-117,-129,-127,-97
4,-117,-120,60,65,-118,-126,-63,-118,-130,-128,-98
3,-119,-121,62,65,-120,-129,-64,-119,-130,-129,-100
0,-122,-121,65,64,-122,-131,-66,-120,-131,-130,-101
-3,-126,-120,69,62,-123,-133,-67,-121,-131,-131,-103
-7,-129,-120,73,59,-125,-133,-67,-122,-132,-131,-104
-12,-132,-118,76,56,-126,-132,-66,-122,-132,-131,-106
-15,-135,-117,79,54,-126,-130,-66,-123,-132,-131,-106
-18,-136,-115,81,51,-126,-127,-65,-123,-132,-130,-107
-20,-136,-113,82,50,-125,-125,-65,-123,-132,-130,-107
-19,-134,-112,81,49,-123,-123,-64,-124,-132,-130,-106
-18,-132,-111,79,49,-122,-122,-65,-124,-132,-130,-105
-16,-129,-110,77,50,-120,-122,-65,-125,-133,-130,-105
-13,-126,-110,74,51,-118,-123,-67,-126,-134,-130,-104
-10,-123,-111,71,53,-117,-126,-69,-128,-135,-131,-104
-8,-122,-111,69,54,-117,-129,-71,-130,-137,-131,-104
-7,-122,-112,69,55,-117,-133,-73,-131,-139,-133,-104
-8,-124,-113,70,55,-118,-138,-75,-133,-140,-134,-105
-10,-127,-114,72,54,-120,-142,-77,-135,-142,-135,-106
-13,-131,-115,76,53,-123,-145,-78,-136,-143,-136,-107
-18,-135,-115,80,51,-125,-148,-79,-136,-144,-137,-108
-22,-140,-115,85,49,-128,-149,-79,-136,-144,-138,-109
-26,-144,-115,89,47,-129,-149,-79,-135,-144,-138,-110
-29,-147,-114,91,45,-131,-149,-79,-134,-143,-137,-110
-31,-148,-114,93,44,-131,-148,-77,-132,-141,-136,-110
-31,-148,-114,93,44,-131,-146,-76,-130,-140,-135,-109
-29,-146,-113,91,44,-130,-143,-74,-127,-137,-133,-109
-26,-143,-113,88,46,-128,-141,-72,-124,-135,-130,-108
-22,-139,-112,84,47,-126,-139,-70,-122,-133,-128,-108
-18,-135,-112,80,49,-123,-137,-68,-119,-131,-125,-108
-14,-130,-112,76,51,-121,-136,-66,-118,-129,-122,-107
-11,-127,-112,73,53,-120,-135,-64,-116,-127,-120,-107
-9,-125,-112,70,54,-118,-134,-63,-116,-127,-119,-106
-7,-123,-112,69,54,-118,-134,-62,-116,-126,-118,-105
-7,-123,-112,69,55,-117,-135,-61,-117,-127,-118,-104
-8,-123,-112,70,54,-118,-135,-61,-119,-127,-118,-102
-10,-125,-112,71,53,-118,-135,-61,-120,-128,-119,-100
-12,-127,-111,73,51,-119,-136,-61,-122,-129,-120,-97
-15,-129,-111,76,50,-119,-136,-62,-123,-130,-120,-95
-18,-130,-110,78,48,-120,-136,-62,-124,-131,-121,-92
-21,-132,-108,80,46,-120,-136,-62,-124,-131,-122,-90
-23,-133,-107,82,44,-120,-137,-62,-124,-131,-122,-88
-25,-134,-106,83,43,-120,-138,-62,-124,-131,-122,-87
-26,-135,-105,84,42,-120,-139,-62,-123,-130,-121,-87
-27,-136,-105,85,41,-120,-142,-63,-122,-129,-121,-88
-28,-137,-105,86,41,-121,-145,-64,-122,-129,-121,-89
-28,-138,-106,87,41,-122,-149,-66,-122,-129,-122,-92
-28,-140,-108,88,42,-124,-153,-69,-122,-130,-122,-95
-28,-141,-109,88,43,-126,-157,-72,-123,-131,-124,-98
-27,-142,-111,88,44,-127,-160,-74,-125,-132,-125,-101
-26,-143,-113,88,46,-128,-163,-76,-126,-134,-126,-104
-25,-143,-114,88,47,-129,-164,-78,-127,-135,-127,-107
-23,-141,-115,86,48,-128,-163,-78,-127,-136,-126,-108
-21,-139,-114,84,49,-127,-162,-78,-127,-136,-125,-109
-19,-135,-112,81,49,-124,-158,-77,-126,-134,-123,-109
-18,-130,-109,78,48,-121,-154,-74,-123,-132,-120,-108
-16,-125,-106,75,47,-116,-149,-71,-120,-129,-116,-106
-15,-120,-102,71,46,-111,-144,-68,-117,-125,-112,-103
-14,-114,-97,68,44,-106,-139,-64,-112,-121,-107,-100
-13,-109,-92,65,42,-101,-134,-61,-108,-117,-103,-97
-12,-104,-88,62,40,-96,-130,-57,-105,-113,-99,-94
-12,-100,-84,60,38,-92,-127,-54,-102,-110,-97,-91
-12,-96,-80,58,37,-88,-124,-52,-99,-108,-95,-89
-12,-93,-77,57,35,-85,-122,-50,-98,-106,-94,-87
-12,-90,-74,55,34,-82,-121,-48,-97,-106,-95,-85
-12,-87,-72,54,33,-80,-120,-47,-97,-106,-96,-84
-11,-85,-70,52,32,-77,-119,-47,-98,-106,-97,-83
-11,-82,-68,50,31,-75,-119,-47,-99,-107,-98,-82
-10,-79,-66,48,30,-72,-119,-48,-100,-108,-100,-80
-9,-76,-63,46,30,-70,-120,-50,-101,-108,-100,-79
-8,-72,-61,44,29,-66,-121,-52,-102,-108,-100,-77
-6,-68,-58,41,28,-63,-123,-55,-103,-108,-99,-75
-4,-63,-55,38,28,-59,-127,-59,-103,-108,-97,-72
-2,-58,-53,34,27,-56,-131,-64,-104,-108,-95,-69
0,-53,-51,30,28,-52,-137,-68,-105,-107,-92,-67
3,-49,-50,26,29,-49,-143,-73,-105,-106,-89,-64
7,-44,-49,22,30,-47,-150,-78,-106,-106,-85,-61
11,-41,-50,19,32,-45,-157,-82,-107,-105,-82,-58
15,-39,-51,16,35,-45,-164,-87,-108,-105,-80,-56
18,-37,-54,13,38,-46,-171,-90,-110,-105,-78,-55
21,-38,-57,12,41,-47,-177,-93,-111,-106,-77,-53
24,-39,-61,11,45,-50,-183,-95,-112,-106,-76,-53
25,-41,-65,12,47,-53,-187,-96,-114,-107,-76,-52
26,-45,-69,13,50,-57,-191,-96,-115,-108,-77,-52
26,-48,-73,15,52,-60,-193,-95,-116,-109,-78,-53
26,-52,-77,16,54,-64,-195,-95,-116,-110,-80,-53
26,-55,-80,18,56,-68,-195,-94,-117,-111,-82,-54
26,-59,-84,20,58,-71,-195,-92,-117,-113,-83,-55
26,-62,-87,22,59,-74,-195,-91,-117,-114,-85,-56
26,-65,-89,24,60,-77,-194,-90,-117,-115,-87,-57
25,-68,-92,25,61,-80,-192,-89,-117,-116,-88,-59
24,-71,-94,27,62,-82,-191,-88,-117,-116,-89,-60
23,-75,-96,30,62,-85,-189,-87,-117,-116,-90,-62
21,-79,-98,33,62,-88,-187,-87,-116,-116,-90,-63
18,-84,-100,37,62,-92,-185,-87,-116,-116,-91,-65
14,-90,-102,42,61,-96,-184,-87,-116,-116,-91,-68
10,-97,-105,47,60,-100,-183,-87,-116,-117,-92,-70
5,-104,-107,53,59,-105,-183,-88,-117,-118,-93,-73
0,-111,-110,59,58,-110,-183,-89,-119,-120,-95,-77
-3,-119,-112,65,57,-115,-184,-91,-121,-123,-97,-80
-7,-126,-116,70,57,-120,-185,-93,-124,-126,-100,-84
-10,-133,-119,75,57,-126,-187,-95,-127,-130,-103,-88
-12,-139,-123,79,57,-130,-189,-97,-131,-135,-107,-92
-14,-144,-127,83,59,-135,-191,-100,-136,-140,-111,-96
-14,-149,-131,85,60,-139,-192,-102,-140,-144,-115,-100
-14,-152,-134,87,62,-143,-193,-105,-144,-149,-119,-103
-14,-155,-137,89,64,-146,-194,-107,-149,-153,-124,-106
-14,-158,-140,90,65,-149,-194,-108,-153,-157,-127,-108
-13,-160,-143,91,67,-151,-194,-110,-156,-160,-131,-110
-13,-161,-144,92,67,-153,-194,-110,-159,-163,-134,-110
-14,-163,-145,93,67,-154,-193,-110,-161,-165,-137,-111
-15,-164,-146,94,67,-154,-192,-110,-162,-166,-139,-111
-16,-165,-145,95,66,-155,-191,-109,-162,-167,-141,-111
-18,-165,-144,96,65,-155,-190,-108,-162,-168,-143,-111
-20,-166,-143,97,64,-154,-189,-107,-161,-167,-144,-111
-22,-167,-142,99,62,-154,-188,-106,-160,-167,-145,-111
-24,-168,-141,100,60,-154,-188,-105,-158,-166,-145,-112
-26,-169,-139,102,59,-154,-188,-104,-156,-166,-146,-113
-28,-170,-138,104,57,-154,-189,-103,-155,-165,-146,-114
-31,-171,-137,105,55,-154,-189,-103,-154,-165,-147,-115
-33,-173,-136,107,54,-154,-190,-103,-154,-165,-148,-116
-35,-174,-136,109,53,-155,-192,-104,-154,-166,-149,-117
-36,-176,-136,110,52,-155,-193,-105,-155,-167,-150,-117
-37,-177,-136,111,52,-156,-194,-107,-157,-168,-151,-117
-37,-177,-137,111,52,-157,-194,-108,-158,-170,-152,-117
-36,-178,-138,111,53,-158,-195,-110,-160,-171,-153,-117
-35,-178,-139,111,54,-158,-195,-111,-161,-173,-153,-117
-34,-178,-140,110,55,-159,-196,-112,-162,-174,-153,-116
-33,-178,-142,110,56,-160,-196,-113,-163,-175,-152,-116
-33,-178,-142,109,57,-160,-196,-113,-162,-175,-152,-116
-33,-179,-143,109,57,-161,-195,-113,-162,-174,-151,-116
-33,-179,-142,110,57,-161,-195,-113,-160,-173,-150,-116
-35,-180,-142,111,56,-161,-195,-112,-159,-172,-149,-117
-37,-181,-141,112,55,-161,-195,-111,-158,-170,-148,-117
-39,-182,-140,114,53,-161,-194,-110,-156,-169,-148,-118
-41,-182,-138,115,51,-160,-194,-110,-155,-167,-148,-119
-42,-183,-137,116,50,-160,-194,-110,-155,-166,-147,-120
-43,-183,-136,116,49,-159,-194,-110,-154,-165,-147,-121
-43,-182,-135,116,48,-159,-194,-110,-154,-164,-147,-122
-43,-182,-135,116,48,-158,-195,-111,-155,-164,-146,-121
-42,-181,-135,115,49,-158,-195,-112,-155,-163,-145,-120
-41,-180,-135,114,50,-157,-196,-113,-156,-163,-143,-119
-39,-179,-136,112,51,-157,-198,-115,-156,-162,-141,-117
-38,-178,-137,111,52,-157,-199,-116,-157,-162,-139,-115
-36,-177,-137,111,53,-158,-200,-117,-156,-162,-137,-113
-36,-178,-139,110,54,-158,-199,-116,-155,-161,-136,-112
-35,-178,-140,111,54,-159,-197,-113,-153,-161,-136,-114
-36,-180,-140,112,54,-160,-191,-105,-148,-160,-139,-117
-38,-181,-140,113,53,-161,-180,-92,-139,-158,-143,-124
-40,-182,-139,115,51,-161,-164,-72,-125,-154,-150,-134
-44,-181,-135,116,48,-159,-142,-43,-106,-147,-157,-146
-47,-178,-128,116,43,-154,-114,-7,-79,-135,-163,-160
-49,-169,-118,113,37,-144,-81,34,-45,-117,-164,-173
-49,-154,-102,105,29,-128,-47,81,-5,-90,-158,-181
-46,-128,-81,91,19,-104,-14,127,40,-54,-139,-182
-36,-89,-51,67,9,-70,12,167,89,-5,-102,-170
-20,-35,-14,32,-1,-24,27,195,139,55,-44,-141
3,36,33,-16,-12,35,26,205,187,130,40,-92
37,127,90,-78,-24,109,4,191,229,218,152,-18
80,238,157,-155,-36,198,-40,150,264,317,292,81
133,366,233,-246,-48,300,-109,80,290,426,458,206
192,508,316,-346,-60,412,-201,-16,305,539,644,355
255,659,403,-454,-72,532,-313,-136,308,653,842,522
320,812,491,-562,-83,652,-438,-275,301,761,1044,701
382,957,574,-666,-94,766,-572,-424,282,857,1237,882
436,1086,649,-757,-104,868,-706,-576,252,933,1409,1056
479,1191,710,-831,-113,950,-834,-723,210,982,1548,1213
507,1262,753,-880,-120,1008,-949,-859,156,1000,1644,1343
518,1295,776,-902,-126,1036,-1047,-980,88,981,1690,1438
510,1287,775,-895,-130,1032,-1123,-1080,7,923,1680,1493
484,1238,752,-857,-131,996,-1177,-1160,-86,827,1614,1504
441,1152,709,-792,-131,931,-1207,-1217,-191,697,1497,1472
385,1034,647,-705,-129,841,-1215,-1253,-304,540,1335,1400
319,892,572,-602,-124,733,-1202,-1269,-420,364,1139,1294
248,738,488,-489,-118,613,-1170,-1265,-533,181,924,1163
177,579,401,-374,-110,491,-1121,-1243,-635,3,701,1014
110,426,315,-265,-100,372,-1058,-1203,-720,-160,487,859
51,287,235,-165,-90,262,-984,-1148,-782,-299,291,705
2,166,164,-81,-79,166,-902,-1079,-817,-407,122,561
-34,68,104,-13,-67,87,-813,-997,-823,-480,-11,432
-61,-6,56,37,-56,25,-721,-906,-802,-520,-111,322
-76,-59,18,71,-45,-19,-628,-809,-757,-527,-176,231
-83,-93,-7,92,-35,-49,-536,-710,-694,-509,-212,159
-83,-112,-26,101,-26,-68,-447,-611,-618,-471,-224,105
-79,-119,-38,102,-17,-77,-363,-516,-535,-422,-219,65
-71,-119,-45,98,-10,-81,-285,-427,-453,-367,-202,37
-63,-115,-49,92,-3,-81,-215,-347,-376,-312,-180,17
-54,-110,-52,85,2,-81,-151,-277,-306,-262,-157,3
-47,-105,-55,79,7,-80,-95,-217,-247,-219,-136,-8
-40,-101,-58,74,12,-80,-47,-166,-198,-183,-119,-17
-35,-100,-62,71,16,-81,-6,-125,-158,-156,-105,-25
-31,-100,-66,69,20,-83,27,-91,-128,-135,-96,-33
-28,-101,-70,68,23,-86,55,-64,-104,-120,-90,-41
-26,-103,-74,68,27,-89,78,-43,-86,-109,-87,-48
-24,-106,-78,68,30,-92,96,-27,-72,-101,-85,-55
-22,-108,-82,68,33,-95,111,-14,-61,-95,-85,-61
-19,-109,-86,68,35,-98,123,-4,-53,-90,-85,-66
-16,-109,-89,66,38,-99,133,3,-45,-86,-85,-71
-14,-109,-91,65,41,-100,142,10,-39,-82,-85,-74
-11,-107,-93,63,43,-100,151,16,-32,-78,-84,-77
-8,-106,-94,60,44,-100,158,22,-26,-74,-83,-79
-6,-103,-94,58,45,-98,166,28,-20,-69,-81,-80
-4,-101,-93,57,45,-97,173,33,-14,-64,-78,-80
-4,-99,-91,55,45,-95,179,39,-8,-59,-75,-80
-4,-97,-89,55,43,-93,185,44,-2,-54,-71,-80
-6,-96,-87,55,42,-91,190,48,2,-50,-68,-79
-8,-96,-84,56,39,-90,194,53,7,-46,-66,-79
-11,-97,-82,57,37,-89,197,57,11,-42,-64,-78
-13,-97,-80,59,35,-88,200,60,14,-40,-62,-78
-16,-98,-79,61,34,-88,202,63,17,-38,-62,-78
-18,-100,-78,62,32,-88,205,65,19,-36,-61,-77
-19,-100,-77,63,32,-89,207,67,21,-35,-61,-77
-20,-101,-77,64,31,-89,209,68,24,-34,-60,-76
-19,-101,-77,64,32,-89,212,70,26,-32,-59,-76
-19,-100,-78,63,32,-89,214,71,29,-30,-58,-75
-17,-99,-78,62,33,-88,217,72,32,-28,-56,-74
-15,-96,-77,59,34,-86,220,74,36,-25,-53,-73
-13,-93,-76,57,35,-84,222,76,41,-22,-50,-71
-10,-89,-75,53,35,-82,224,79,46,-18,-46,-70
-7,-84,-73,49,36,-78,226,82,51,-14,-42,-68
-5,-79,-71,45,36,-75,228,86,56,-9,-37,-66
-2,-73,-68,41,35,-70,230,91,61,-5,-34,-64
0,-68,-64,38,35,-66,232,95,65,0,-30,-62
0,-63,-61,35,34,-62,234,100,70,3,-27,-60
1,-60,-58,32,33,-59,235,104,73,6,-25,-59
1,-58,-56,31,31,-57,237,108,77,9,-24,-58
1,-57,-55,31,30,-56,238,111,79,11,-24,-59
0,-58,-55,32,30,-56,238,113,81,13,-25,-59
0,-60,-56,33,30,-58,238,114,83,15,-25,-61
-1,-62,-57,35,30,-60,238,115,85,16,-26,-63
-1,-65,-60,36,32,-62,238,115,87,18,-26,-64
0,-67,-63,37,33,-64,238,115,90,20,-25,-66
0,-67,-65,36,35,-66,238,115,94,23,-23,-67
3,-66,-67,34,38,-66,238,116,98,27,-21,-68
7,-63,-68,31,40,-65,239,118,103,32,-17,-67
11,-59,-68,26,42,-63,241,121,110,37,-13,-66
16,-52,-66,21,43,-59,243,125,117,44,-8,-64
20,-45,-63,16,44,-54,246,131,124,50,-3,-61
23,-38,-59,10,44,-48,250,137,132,57,2,-58
26,-30,-55,5,43,-42,254,144,140,63,7,-54
28,-23,-49,0,41,-36,258,152,148,69,12,-51
30,-16,-44,-2,40,-30,263,160,156,75,16,-48
31,-10,-39,-6,38,-24,267,167,163,81,20,-46
32,-5,-35,-9,37,-20,272,175,171,86,23,-44
33,-1,-32,-11,36,-16,276,182,178,91,26,-44
35,2,-30,-14,35,-13,280,189,185,96,29,-44
37,5,-29,-17,36,-11,283,195,192,101,32,-44
39,9,-27,-20,36,-9,286,201,199,107,35,-44
41,12,-26,-23,37,-6,289,207,207,113,39,-44
44,16,-24,-26,37,-4,292,213,215,119,43,-43
45,21,-22,-29,37,0,294,219,223,126,47,-41
47,25,-18,-32,35,3,297,225,233,134,52,-38
47,31,-13,-35,33,8,301,233,243,142,59,-34
48,37,-7,-39,30,15,306,242,254,152,65,-30
48,44,0,-42,27,22,311,252,266,162,73,-25
48,52,6,-46,23,29,318,263,278,173,81,-19
48,60,14,-51,19,37,326,275,292,184,89,-14
49,69,22,-55,16,46,334,289,306,196,98,-10
50,78,30,-60,13,54,342,303,321,208,106,-6
51,86,37,-65,10,62,351,317,335,220,115,-3
53,94,43,-70,7,69,359,331,350,232,123,0
54,102,49,-74,5,76,367,345,364,243,132,1
55,109,55,-78,2,83,373,358,377,255,140,3
56,116,61,-82,0,89,379,369,390,266,148,5
56,123,67,-85,-3,96,384,380,402,276,156,8
57,129,73,-89,-6,102,387,390,413,286,163,12
57,137,79,-93,-9,109,391,399,424,296,171,16
58,145,86,-97,-12,117,395,409,435,306,178,22
61,155,93,-103,-15,125,399,419,446,315,186,30
64,166,100,-111,-17,135,404,429,457,326,193,38
69,179,108,-119,-18,145,410,441,470,336,201,46
75,193,116,-129,-19,156,417,454,483,348,209,55
81,208,125,-140,-20,168,426,467,497,360,218,64
88,224,134,-151,-21,180,435,481,512,374,227,73
94,239,143,-162,-23,192,445,496,528,388,237,81
99,254,153,-172,-25,205,455,510,544,403,248,88
103,269,164,-181,-29,216,464,524,561,418,260,95
105,281,174,-189,-33,227,473,536,576,433,271,100
106,293,185,-195,-37,238,480,547,590,447,283,106
107,303,194,-200,-42,247,486,557,603,459,295,111
106,312,204,-204,-47,256,490,564,615,471,305,116
106,320,212,-208,-52,264,492,570,624,481,315,121
106,328,221,-212,-56,272,494,574,632,489,325,127
106,336,228,-217,-60,280,495,577,638,497,333,133
107,345,236,-222,-63,288,495,579,643,504,341,141
109,354,244,-228,-66,297,495,581,648,510,349,149
111,364,252,-234,-69,307,496,582,652,516,356,158
114,375,261,-241,-72,317,497,584,656,523,364,167
116,387,271,-249,-76,328,498,585,660,529,372,178
119,398,281,-256,-80,339,499,586,664,536,381,188
120,410,291,-262,-84,350,500,587,666,542,389,197
121,420,301,-268,-89,360,501,586,668,548,398,206
121,429,310,-273,-93,370,501,584,669,552,406,214
120,436,318,-276,-98,378,499,579,668,555,413,220
118,442,326,-278,-102,384,496,571,664,557,418,225
116,445,331,-279,-106,389,490,560,658,557,423,228
114,447,335,-279,-109,392,483,547,649,554,425,231
112,448,338,-278,-112,393,473,530,638,549,426,232
109,447,340,-276,-114,394,462,511,625,543,426,234
107,445,341,-274,-116,393,449,490,608,534,424,235
105,443,341,-272,-117,392,434,467,590,524,421,236
102,440,340,-269,-117,390,419,444,570,512,416,238
100,436,339,-266,-118,387,404,420,549,499,411,240
98,432,336,-263,-117,383,389,396,526,485,404,242
96,426,332,-259,-116,378,374,372,502,469,396,243
94,418,326,-253,-114,371,359,349,478,451,386,243
91,408,318,-247,-112,363,345,326,452,433,375,242
89,396,308,-240,-108,352,332,304,427,413,362,238
86,381,295,-231,-103,338,320,282,401,393,348,232
83,364,281,-220,-98,323,309,260,375,371,333,223
80,345,265,-209,-91,305,298,239,349,349,316,212
77,324,246,-197,-84,286,287,218,323,326,298,199
73,302,227,-184,-76,265,277,198,297,303,280,185
70,279,207,-170,-68,244,267,179,272,280,261,169
66,255,187,-157,-60,223,257,160,247,256,242,153
62,232,167,-143,-52,201,247,142,223,234,223,137
59,209,149,-129,-44,180,237,125,200,211,204,122
55,187,131,-116,-37,161,227,109,178,189,186,108
51,166,114,-104,-30,142,217,95,156,169,168,96
47,146,99,-92,-24,124,208,81,136,149,152,85
42,127,85,-81,-19,108,200,69,117,130,136,75
38,110,73,-70,-15,92,193,58,99,113,120,66
34,94,61,-60,-11,78,186,48,83,96,105,58
29,78,50,-50,-7,64,180,39,67,81,91,51
25,63,39,-40,-4,51,174,31,51,66,77,43
21,48,29,-31,0,39,169,22,37,53,63,35
18,34,18,-22,2,26,164,14,23,39,49,27
15,20,7,-14,6,14,158,5,9,26,36,19
12,7,-2,-6,10,2,152,-2,-3,14,23,11
11,-4,-13,0,15,-9,146,-11,-15,2,11,2
10,-15,-23,6,19,-19,140,-19,-26,-8,0,-4
10,-24,-32,10,24,-28,135,-26,-35,-18,-8,-12
11,-32,-41,14,29,-36,130,-32,-44,-27,-17,-18
12,-37,-48,16,33,-43,127,-36,-50,-34,-24,-23
14,-42,-54,17,37,-48,125,-38,-54,-40,-29,-28
15,-45,-58,18,40,-52,125,-39,-57,-44,-33,-32
17,-47,-62,18,42,-54,126,-38,-59,-47,-36,-35
17,-48,-64,19,44,-56,127,-36,-60,-49,-38,-38
17,-50,-66,20,44,-58,129,-35,-60,-50,-40,-41
16,-53,-68,21,45,-60,131,-33,-61,-51,-42,-44
15,-56,-69,24,45,-62,132,-33,-62,-53,-44,-46
13,-60,-72,27,45,-65,132,-33,-64,-55,-46,-49
11,-64,-74,30,45,-69,130,-36,-67,-58,-49,-52
9,-69,-77,34,46,-73,127,-39,-70,-61,-52,-55
8,-75,-81,37,47,-78,123,-44,-75,-65,-55,-57
6,-80,-85,41,48,-82,118,-48,-79,-70,-59,-59
5,-85,-88,44,49,-86,113,-53,-84,-74,-62,-60
4,-89,-91,46,50,-90,109,-57,-88,-78,-65,-60
3,-92,-93,48,51,-93,105,-61,-91,-81,-67,-60
2,-94,-94,50,51,-94,102,-63,-93,-83,-69,-60
1,-95,-94,51,50,-95,101,-63,-94,-84,-69,-59
0,-96,-94,52,49,-95,101,-63,-94,-84,-69,-58
-1,-96,-92,53,48,-94,102,-61,-93,-83,-69,-57
-2,-96,-91,53,46,-94,104,-58,-92,-81,-68,-56
-2,-95,-90,53,45,-93,106,-56,-90,-79,-67,-55
-3,-94,-89,53,45,-92,109,-53,-88,-77,-66,-55
-2,-94,-89,52,45,-91,112,-50,-86,-75,-65,-55
-1,-93,-89,51,46,-91,115,-48,-84,-74,-64,-56
0,-93,-90,50,47,-92,117,-47,-83,-73,-64,-57
1,-93,-92,50,49,-92,118,-46,-83,-72,-64,-58
2,-93,-93,49,50,-93,118,-46,-83,-72,-63,-59
4,-93,-95,48,52,-94,118,-47,-83,-72,-63,-60
6,-93,-97,47,54,-95,116,-48,-84,-72,-63,-61
8,-93,-99,46,56,-96,114,-49,-85,-73,-63,-61
9,-93,-100,46,58,-97,111,-50,-86,-74,-63,-60
10,-93,-101,45,59,-98,108,-51,-87,-74,-63,-60
10,-93,-102,45,60,-98,105,-52,-87,-75,-64,-58
11,-93,-102,45,60,-98,103,-52,-88,-76,-64,-57
11,-93,-102,45,60,-98,101,-52,-88,-76,-65,-55
10,-93,-101,45,59,-97,100,-51,-87,-76,-65,-53
9,-93,-100,45,58,-96,100,-50,-86,-76,-65,-51
8,-92,-98,45,56,-95,101,-48,-85,-75,-65,-50
7,-91,-95,45,54,-93,102,-47,-83,-75,-65,-49
5,-90,-93,45,52,-91,104,-45,-81,-74,-64,-48
4,-88,-90,45,50,-89,106,-44,-79,-73,-63,-48
4,-86,-87,44,49,-87,108,-42,-77,-72,-62,-48
3,-84,-85,43,47,-85,110,-41,-76,-72,-61,-48
4,-82,-83,42,46,-83,111,-41,-75,-72,-61,-48
4,-80,-81,41,46,-81,112,-40,-74,-72,-61,-49
4,-78,-80,41,45,-80,112,-40,-74,-72,-62,-49
4,-78,-79,40,45,-79,112,-40,-74,-73,-63,-50
3,-78,-79,41,44,-79,110,-40,-74,-75,-64,-51
2,-79,-78,42,43,-79,109,-41,-74,-76,-66,-52
0,-81,-78,44,42,-80,106,-42,-74,-77,-67,-53
-3,-83,-77,47,40,-81,103,-44,-75,-78,-69,-55
-6,-85,-76,49,38,-81,99,-46,-75,-79,-69,-56
-9,-87,-76,52,36,-82,96,-48,-76,-80,-70,-57
-11,-89,-75,54,35,-82,92,-50,-77,-80,-70,-58
-12,-89,-74,55,34,-82,89,-53,-79,-80,-69,-58
-13,-89,-73,55,33,-82,87,-55,-80,-80,-68,-58
-13,-88,-73,54,33,-81,85,-56,-81,-79,-67,-57
-11,-86,-72,53,33,-80,85,-57,-82,-79,-65,-57
-9,-84,-72,50,34,-78,85,-57,-83,-78,-64,-55
-7,-82,-72,48,35,-77,86,-56,-83,-77,-63,-54
-5,-80,-72,46,36,-76,87,-54,-84,-76,-62,-53
-4,-78,-72,44,37,-75,89,-52,-83,-75,-61,-52
-2,-77,-72,43,37,-74,90,-50,-82,-74,-60,-51
-1,-76,-72,42,38,-74,92,-48,-81,-74,-60,-51
-1,-76,-72,42,38,-74,93,-46,-80,-73,-61,-51
-1,-77,-73,43,38,-75,94,-45,-79,-72,-61,-51
-2,-78,-73,43,38,-75,95,-44,-79,-72,-62,-51
-2,-79,-73,44,38,-76,95,-44,-78,-72,-63,-52
-3,-80,-74,45,37,-76,95,-45,-78,-72,-64,-52
-4,-81,-74,47,37,-77,95,-47,-79,-73,-65,-53
-5,-82,-74,47,37,-77,94,-49,-80,-74,-66,-53
-6,-82,-74,48,36,-77,93,-51,-81,-75,-67,-53
-6,-82,-73,48,36,-77,91,-54,-82,-77,-68,-52
-5,-82,-73,47,36,-77,89,-56,-83,-78,-68,-51
-4,-81,-74,46,37,-76,86,-57,-85,-80,-69,-50
-2,-79,-74,44,38,-76,83,-57,-86,-81,-69,-49
0,-77,-75,42,40,-76,81,-57,-86,-82,-68,-48
3,-75,-76,39,42,-75,79,-57,-87,-83,-68,-47
6,-74,-78,37,45,-75,77,-55,-86,-82,-67,-46
10,-72,-79,34,47,-75,76,-53,-86,-82,-67,-46
13,-71,-81,32,50,-76,76,-52,-85,-81,-66,-46
14,-70,-82,31,51,-76,77,-50,-85,-79,-65,-46
15,-70,-83,30,52,-76,77,-48,-84,-77,-63,-46
15,-71,-83,31,52,-77,78,-48,-83,-76,-62,-47
13,-72,-82,33,50,-77,79,-47,-83,-74,-61,-47
10,-74,-81,35,48,-78,79,-48,-82,-72,-60,-48
6,-76,-80,38,46,-78,79,-49,-82,-71,-59,-48
1,-79,-78,42,42,-78,77,-50,-83,-71,-59,-48
-2,-81,-76,45,39,-79,76,-51,-84,-70,-59,-48
-7,-83,-74,48,36,-79,74,-52,-85,-71,-59,-48
-10,-84,-72,50,33,-78,72,-53,-86,-72,-59,-47
-12,-85,-70,52,31,-77,70,-54,-88,-73,-60,-47
-13,-84,-69,52,30,-76,69,-54,-89,-74,-61,-47
-13,-82,-67,51,29,-74,68,-54,-90,-75,-62,-46
-12,-80,-66,49,29,-73,68,-53,-91,-75,-63,-46
-9,-77,-65,47,30,-71,69,-52,-92,-76,-63,-46
-7,-74,-65,44,31,-69,70,-51,-92,-76,-64,-45
-4,-72,-66,41,33,-69,71,-51,-93,-77,-65,-45
-1,-71,-67,40,35,-69,71,-51,-93,-78,-66,-46
0,-71,-69,39,37,-70,70,-52,-94,-79,-66,-47
0,-73,-72,39,38,-72,69,-53,-95,-80,-67,-48
0,-77,-75,42,40,-76,67,-56,-97,-82,-69,-50
-1,-82,-79,45,41,-80,63,-59,-99,-84,-70,-52
-4,-89,-82,50,41,-85,59,-62,-102,-87,-71,-55
-8,-96,-85,56,40,-90,55,-66,-105,-90,-72,-57
-13,-102,-87,62,39,-95,52,-68,-108,-93,-74,-60
-18,-109,-88,67,37,-98,48,-71,-110,-96,-75,-62
-22,-114,-88,72,36,-101,46,-72,-111,-97,-76,-64
-26,-117,-88,75,34,-103,45,-73,-112,-98,-76,-66
-28,-118,-88,77,33,-103,44,-72,-113,-99,-77,-67
-28,-118,-87,77,32,-103,45,-71,-112,-98,-77,-67
-27,-117,-86,76,33,-101,47,-70,-111,-97,-78,-67
-25,-114,-86,74,34,-100,48,-68,-110,-96,-78,-67
-22,-111,-86,71,35,-99,50,-66,-108,-95,-78,-66
-19,-108,-87,68,37,-98,52,-65,-107,-95,-79,-65
-16,-106,-88,65,39,-97,53,-65,-107,-94,-79,-64
-13,-104,-89,63,41,-96,53,-65,-107,-95,-80,-63
-11,-104,-90,62,42,-97,53,-66,-109,-95,-80,-62
-10,-104,-91,61,43,-97,52,-68,-110,-97,-81,-61
-11,-105,-92,62,44,-98,50,-70,-113,-98,-82,-60
-12,-107,-93,63,44,-100,48,-72,-115,-101,-83,-60
-13,-109,-93,65,43,-101,45,-73,-118,-103,-84,-60
-14,-111,-95,67,43,-103,42,-75,-121,-105,-85,-60
-15,-113,-96,68,43,-105,39,-76,-124,-107,-87,-61
-15,-115,-98,69,44,-106,37,-76,-127,-110,-88,-61
-15,-117,-100,70,45,-108,35,-76,-129,-111,-90,-62
-13,-118,-102,69,47,-110,33,-76,-130,-113,-91,-63
-11,-119,-105,69,49,-111,32,-76,-131,-114,-93,-64
-9,-119,-107,68,52,-113,32,-76,-131,-115,-94,-65
-6,-118,-110,66,54,-114,32,-76,-132,-115,-94,-66
-3,-118,-112,65,56,-114,33,-75,-131,-115,-94,-67
-1,-117,-114,63,58,-115,33,-75,-131,-114,-94,-68
0,-116,-115,62,60,-115,34,-75,-131,-114,-94,-69
1,-115,-115,61,61,-115,35,-75,-130,-113,-93,-70
2,-114,-115,60,61,-114,35,-74,-130,-112,-92,-71
3,-113,-114,59,61,-113,35,-74,-129,-111,-91,-71
3,-112,-113,58,60,-112,36,-73,-129,-110,-90,-71
2,-110,-111,58,59,-110,36,-72,-128,-109,-89,-71
2,-109,-109,57,58,-108,36,-71,-128,-108,-88,-71
1,-107,-106,57,56,-106,36,-70,-127,-107,-86,-70
0,-105,-103,56,54,-104,37,-70,-125,-106,-85,-69
0,-104,-101,56,53,-102,37,-69,-124,-105,-84,-69
0,-102,-99,55,52,-101,37,-69,-123,-104,-83,-68
-1,-101,-98,55,51,-100,36,-69,-122,-104,-82,-68
0,-101,-97,54,51,-99,36,-70,-121,-103,-81,-69
0,-100,-98,54,51,-99,36,-71,-121,-102,-81,-70
1,-100,-99,52,52,-100,35,-72,-121,-102,-81,-71
3,-99,-100,51,54,-100,35,-73,-121,-102,-81,-71
6,-98,-102,49,56,-101,36,-73,-121,-101,-81,-72
9,-97,-103,48,57,-101,37,-73,-121,-101,-81,-72
11,-96,-104,46,58,-100,39,-73,-121,-101,-82,-71
13,-94,-104,44,59,-100,41,-72,-121,-101,-82,-70
14,-92,-104,42,59,-98,44,-70,-120,-101,-82,-68
14,-90,-102,41,59,-97,48,-69,-120,-101,-82,-66
14,-89,-101,41,58,-95,50,-68,-120,-101,-81,-65
12,-88,-99,41,56,-94,52,-68,-120,-101,-81,-64
10,-89,-97,43,55,-93,53,-68,-120,-102,-81,-63
8,-90,-96,45,53,-93,53,-69,-121,-102,-81,-63
5,-92,-95,47,52,-94,51,-71,-122,-102,-82,-65
2,-96,-96,50,51,-95,49,-73,-124,-103,-82,-67
0,-99,-97,54,50,-98,45,-76,-126,-104,-83,-69
-2,-104,-99,57,50,-100,40,-79,-128,-105,-84,-72
-4,-108,-101,60,50,-103,35,-81,-130,-106,-85,-75
-6,-111,-103,63,50,-106,31,-83,-132,-107,-86,-78
-7,-114,-104,65,50,-109,27,-84,-133,-109,-87,-80
-8,-117,-106,67,50,-110,25,-85,-134,-110,-88,-81
-9,-119,-106,68,50,-111,23,-85,-135,-111,-89,-82
-10,-119,-106,69,50,-112,23,-85,-135,-112,-89,-81
-11,-120,-106,70,49,-112,23,-84,-135,-113,-90,-80
-12,-120,-105,70,49,-111,24,-83,-135,-113,-91,-78
-13,-119,-104,70,48,-111,26,-82,-134,-114,-91,-76
-13,-119,-103,70,47,-110,27,-81,-134,-115,-92,-73
-13,-118,-102,70,47,-109,29,-81,-134,-115,-92,-71
-13,-117,-102,69,47,-108,30,-81,-133,-115,-92,-69
-12,-116,-102,68,47,-108,30,-81,-133,-116,-92,-67
-10,-115,-102,66,48,-108,30,-81,-133,-116,-92,-66
-7,-113,-103,64,49,-107,29,-82,-133,-116,-92,-66
-4,-111,-104,62,51,-107,28,-82,-133,-116,-92,-66
-1,-109,-105,59,53,-107,26,-82,-133,-117,-92,-67
2,-107,-107,56,55,-107,24,-82,-133,-117,-93,-68
5,-105,-108,54,57,-106,22,-81,-133,-117,-93,-70
8,-103,-109,51,58,-106,20,-81,-133,-117,-94,-72
10,-102,-110,49,59,-106,18,-80,-134,-117,-95,-73
12,-101,-111,48,60,-106,16,-79,-134,-118,-96,-75
13,-101,-111,48,61,-106,14,-78,-135,-118,-97,-76
12,-102,-112,48,61,-107,13,-77,-135,-119,-98,-77
12,-103,-113,49,61,-108,12,-76,-136,-119,-98,-77
11,-104,-113,50,61,-109,11,-76,-137,-120,-99,-77
10,-106,-114,51,61,-110,11,-76,-137,-121,-99,-77
10,-107,-115,52,61,-111,11,-75,-138,-121,-99,-76
9,-107,-115,52,61,-111,12,-75,-137,-121,-98,-74
10,-106,-114,52,61,-110,14,-74,-137,-120,-98,-73
11,-104,-113,50,61,-109,16,-72,-136,-120,-97,-72
12,-101,-112,48,61,-106,18,-71,-134,-118,-96,-70
13,-98,-110,46,60,-104,21,-69,-132,-117,-94,-69
14,-95,-107,44,60,-101,23,-67,-130,-116,-93,-69
14,-92,-105,42,59,-98,25,-65,-129,-114,-93,-70
14,-91,-102,42,58,-96,26,-64,-128,-114,-93,-71
12,-91,-101,43,56,-95,25,-63,-128,-113,-93,-73
10,-92,-100,45,55,-95,24,-64,-129,-114,-95,-75
7,-95,-100,48,54,-97,21,-65,-131,-115,-97,-78
3,-100,-100,52,52,-99,17,-68,-134,-117,-99,-81
0,-105,-102,57,51,-103,13,-71,-137,-119,-101,-83
-3,-111,-104,61,51,-107,9,-75,-140,-121,-103,-86
-6,-116,-107,65,51,-110,6,-78,-143,-123,-105,-87
-7,-120,-109,67,51,-114,4,-81,-145,-124,-106,-87
-7,-122,-112,69,52,-116,3,-83,-147,-125,-107,-87
-6,-124,-114,69,54,-118,3,-83,-148,-125,-106,-86
-4,-123,-116,67,56,-119,5,-83,-148,-125,-105,-84
-1,-122,-118,65,58,-119,7,-82,-148,-124,-104,-83
2,-120,-120,62,61,-119,10,-80,-147,-123,-102,-81
6,-117,-121,59,63,-118,13,-78,-145,-122,-100,-79
10,-115,-122,56,65,-118,15,-76,-144,-120,-98,-78
13,-113,-123,54,67,-117,17,-73,-142,-119,-96,-77
15,-111,-123,52,68,-117,18,-71,-140,-117,-94,-77
16,-109,-123,50,68,-116,19,-69,-138,-115,-92,-77
16,-108,-122,49,68,-115,20,-67,-136,-113,-90,-78
16,-106,-120,49,67,-113,20,-66,-134,-110,-88,-78
15,-104,-117,48,65,-111,21,-64,-131,-108,-86,-78
14,-102,-113,48,63,-108,22,-63,-129,-105,-84,-77
12,-99,-109,47,60,-104,24,-61,-126,-102,-82,-75
11,-95,-104,45,57,-100,26,-59,-124,-99,-79,-73
10,-91,-99,44,54,-96,29,-58,-122,-96,-77,-70
9,-87,-94,42,52,-91,33,-56,-120,-93,-76,-67
9,-82,-89,40,50,-86,36,-54,-118,-92,-75,-63
10,-77,-86,37,49,-82,39,-52,-117,-91,-74,-60
12,-72,-83,33,49,-78,42,-51,-117,-90,-74,-56
15,-67,-81,29,49,-74,45,-49,-116,-90,-74,-53
18,-62,-79,25,50,-71,47,-48,-116,-90,-74,-51
23,-56,-77,20,51,-67,49,-47,-115,-89,-74,-49
28,-49,-75,14,52,-62,51,-46,-114,-89,-74,-48
33,-42,-73,8,53,-58,52,-46,-113,-88,-72,-47
37,-34,-70,2,54,-52,52,-46,-112,-86,-70,-45
42,-26,-66,-3,54,-46,52,-47,-111,-84,-68,-44
46,-18,-62,-9,54,-40,51,-49,-111,-82,-65,-42
49,-11,-58,-14,53,-34,48,-51,-110,-80,-61,-39
52,-4,-54,-19,53,-29,44,-55,-111,-78,-58,-36
54,0,-51,-23,52,-25,39,-59,-112,-76,-55,-33
56,4,-49,-25,52,-22,33,-64,-113,-76,-53,-29
57,5,-49,-27,52,-21,26,-69,-116,-76,-51,-26
58,5,-50,-28,54,-21,18,-74,-119,-77,-50,-23
59,3,-53,-27,56,-24,10,-79,-123,-79,-51,-22
61,0,-58,-26,59,-28,2,-84,-126,-82,-51,-21
62,-4,-64,-24,62,-33,-4,-88,-130,-85,-53,-20
62,-10,-70,-21,66,-40,-10,-91,-134,-88,-55,-21
63,-17,-77,-18,69,-46,-15,-94,-138,-92,-57,-22
62,-24,-84,-15,72,-53,-19,-96,-141,-95,-59,-24
61,-31,-90,-10,75,-60,-21,-98,-144,-98,-60,-26
60,-38,-96,-6,77,-66,-22,-99,-146,-100,-62,-28
57,-44,-100,-2,78,-71,-22,-99,-148,-102,-63,-30
55,-50,-103,1,78,-76,-21,-98,-149,-103,-64,-32
51,-55,-105,5,77,-79,-19,-96,-149,-103,-64,-34
48,-59,-106,9,76,-82,-16,-94,-148,-103,-64,-36
45,-62,-106,12,74,-84,-13,-91,-147,-102,-64,-38
42,-65,-106,15,72,-85,-10,-88,-145,-101,-65,-41
39,-68,-106,18,71,-87,-7,-85,-143,-100,-65,-43
36,-70,-106,20,70,-88,-5,-83,-141,-99,-66,-46
34,-73,-106,23,69,-90,-3,-81,-140,-99,-68,-49
33,-77,-108,25,69,-92,-2,-81,-140,-100,-70,-53
31,-81,-111,28,70,-96,-2,-82,-141,-101,-73,-57
29,-86,-114,32,71,-100,-3,-84,-143,-104,-77,-61
28,-92,-118,36,72,-105,-5,-87,-146,-108,-81,-66
25,-99,-123,40,73,-111,-7,-90,-150,-112,-86,-70
23,-106,-127,45,74,-117,-10,-95,-154,-118,-90,-75
20,-114,-132,50,75,-122,-13,-99,-159,-124,-95,-79
17,-121,-135,55,75,-128,-16,-103,-164,-129,-100,-83
13,-127,-139,60,75,-133,-18,-106,-168,-135,-105,-86
10,-133,-141,64,75,-137,-20,-109,-172,-140,-110,-89
8,-138,-143,68,75,-140,-21,-110,-175,-144,-114,-92
5,-142,-145,71,74,-143,-22,-111,-177,-148,-118,-95
4,-145,-147,74,74,-146,-22,-111,-178,-151,-122,-97
3,-147,-148,75,75,-148,-22,-110,-178,-153,-125,-98
3,-148,-150,76,76,-150,-21,-109,-179,-154,-128,-100
4,-150,-152,76,77,-151,-20,-108,-178,-154,-130,-101
5,-151,-154,76,79,-153,-19,-106,-178,-155,-131,-101
7,-151,-157,75,80,-154,-18,-105,-179,-154,-132,-102
8,-152,-159,75,82,-155,-16,-104,-179,-154,-132,-101
9,-153,-160,75,84,-156,-15,-103,-180,-153,-133,-101
9,-153,-161,75,84,-157,-14,-102,-181,-153,-133,-100
9,-154,-162,76,85,-158,-14,-102,-182,-153,-133,-100
8,-155,-161,76,84,-158,-13,-102,-183,-152,-133,-99
7,-155,-160,77,83,-157,-13,-102,-184,-152,-133,-98
5,-155,-158,78,81,-156,-13,-102,-184,-152,-133,-98
3,-154,-156,79,79,-155,-12,-101,-184,-152,-132,-97
2,-153,-153,79,77,-153,-12,-101,-183,-151,-132,-97
1,-151,-151,78,76,-151,-12,-100,-182,-151,-131,-96
2,-149,-148,77,74,-148,-11,-99,-181,-150,-130,-96
3,-146,-147,75,74,-146,-10,-97,-179,-149,-129,-95
4,-144,-146,73,74,-145,-9,-96,-177,-148,-127,-95
6,-142,-145,71,75,-143,-8,-94,-175,-147,-126,-94
8,-140,-145,69,75,-142,-8,-93,-173,-146,-125,-94
9,-139,-145,68,76,-142,-7,-91,-172,-145,-125,-93
10,-138,-146,67,77,-142,-6,-90,-170,-145,-124,-93
11,-138,-146,67,77,-142,-6,-90,-169,-144,-124,-94
10,-139,-146,68,77,-142,-6,-89,-169,-144,-124,-94
9,-139,-145,69,76,-142,-6,-89,-168,-144,-125,-94
7,-140,-144,70,74,-142,-7,-89,-168,-144,-125,-94
4,-140,-142,71,72,-141,-7,-89,-168,-144,-124,-94
2,-140,-139,73,69,-140,-8,-89,-168,-143,-124,-94
0,-139,-136,73,66,-138,-9,-89,-168,-143,-123,-93
-2,-138,-133,74,64,-135,-10,-90,-168,-142,-122,-93
-3,-136,-130,73,62,-133,-11,-90,-168,-141,-120,-91
-3,-134,-127,72,60,-130,-13,-91,-169,-140,-117,-90
-3,-131,-125,71,60,-128,-14,-92,-169,-139,-115,-88
-2,-128,-123,69,60,-126,-15,-92,-170,-139,-113,-87
0,-126,-123,66,60,-124,-16,-92,-171,-138,-111,-87
1,-124,-123,65,62,-123,-15,-90,-171,-138,-111,-88
3,-124,-124,63,63,-124,-11,-85,-169,-138,-113,-91
4,-124,-126,63,64,-125,-4,-76,-165,-138,-117,-97
3,-126,-127,64,65,-126,7,-62,-158,-137,-123,-106
2,-128,-128,66,65,-128,23,-41,-146,-135,-132,-119
0,-130,-127,68,63,-128,45,-12,-128,-130,-142,-134
-2,-130,-124,70,61,-127,72,22,-104,-121,-151,-150
-4,-127,-119,69,57,-122,102,63,-73,-106,-155,-165
-3,-116,-109,64,53,-112,133,107,-36,-83,-152,-175
1,-96,-94,51,48,-94,162,151,6,-50,-136,-176
12,-63,-72,29,43,-67,186,188,52,-6,-103,-164
30,-14,-42,-4,38,-27,198,215,100,49,-46,-133
58,53,-2,-52,32,26,197,226,146,120,36,-80
96,142,48,-115,26,95,177,215,189,204,148,-1
143,251,109,-193,19,180,137,179,226,301,290,103
198,379,182,-285,11,281,76,118,256,409,459,236
260,523,263,-387,1,393,-4,31,276,524,650,392
324,676,351,-496,-10,514,-102,-77,287,641,854,567
388,831,442,-606,-23,637,-213,-203,288,754,1062,752
447,980,531,-710,-38,756,-332,-339,278,855,1260,937
497,1112,613,-801,-54,862,-452,-479,257,939,1435,1112
535,1218,681,-872,-69,949,-566,-614,225,996,1575,1267
557,1290,732,-919,-84,1011,-671,-739,179,1021,1669,1390
561,1323,760,-938,-96,1042,-760,-848,120,1009,1708,1474
546,1313,764,-925,-105,1038,-831,-939,47,957,1689,1513
514,1260,743,-883,-111,1002,-883,-1009,-40,866,1612,1506
467,1167,699,-813,-112,933,-914,-1059,-140,740,1482,1453
407,1042,633,-720,-109,838,-927,-1089,-249,584,1306,1359
340,893,552,-611,-102,722,-922,-1100,-362,409,1098,1233
269,728,459,-494,-92,593,-902,-1095,-474,224,871,1082
198,560,361,-374,-78,461,-869,-1075,-578,42,640,919
133,398,265,-261,-63,331,-826,-1041,-667,-125,419,753
76,249,174,-158,-46,211,-774,-995,-735,-269,220,593
30,121,92,-71,-29,106,-716,-938,-779,-384,51,446
-4,17,24,-1,-12,20,-654,-872,-795,-464,-81,319
-28,-61,-30,49,2,-46,-589,-798,-786,-511,-178,213
-41,-115,-71,82,15,-93,-522,-718,-752,-525,-239,130
-45,-146,-98,100,26,-123,-456,-635,-699,-512,-269,68
-42,-160,-115,105,36,-137,-392,-552,-632,-479,-275,24
-34,-160,-122,101,43,-141,-330,-470,-557,-432,-263,-4
-24,-150,-123,91,48,-136,-271,-391,-480,-378,-240,-21
-13,-135,-120,78,51,-127,-217,-317,-405,-323,-211,-31
-3,-119,-114,65,54,-116,-167,-251,-336,-271,-182,-36
4,-105,-107,53,54,-105,-123,-192,-275,-224,-155,-37
10,-93,-101,45,54,-96,-83,-140,-223,-185,-132,-38
13,-85,-96,39,53,-90,-50,-97,-181,-153,-113,-39
14,-80,-92,36,52,-85,-21,-61,-147,-129,-100,-41
13,-79,-90,36,50,-84,2,-32,-120,-111,-90,-43
11,-80,-88,38,48,-83,21,-9,-100,-98,-84,-46
8,-82,-88,41,47,-84,35,7,-85,-88,-81,-49
5,-84,-87,43,45,-85,47,21,-73,-81,-79,-53
3,-86,-87,45,44,-86,55,31,-64,-76,-79,-56
2,-88,-87,46,44,-87,62,38,-58,-72,-78,-59
2,-87,-87,46,44,-87,66,44,-52,-68,-78,-62
3,-86,-87,45,44,-86,69,48,-47,-64,-78,-64
5,-84,-87,43,45,-85,72,52,-43,-60,-77,-65
7,-81,-87,40,46,-83,74,55,-39,-56,-76,-66
10,-78,-86,37,47,-81,75,59,-34,-51,-74,-65
13,-75,-86,34,49,-79,77,62,-30,-47,-72,-65
15,-72,-85,31,50,-78,78,65,-26,-42,-69,-64
18,-69,-85,28,51,-76,80,69,-21,-38,-66,-63
21,-66,-85,25,53,-75,81,73,-16,-33,-63,-61
24,-64,-85,23,54,-74,83,77,-12,-30,-59,-60
27,-61,-86,20,55,-73,85,81,-7,-26,-56,-59
30,-59,-86,17,57,-72,87,85,-3,-22,-52,-59
32,-57,-87,15,59,-72,89,89,1,-19,-49,-58
35,-55,-88,13,60,-71,91,93,5,-16,-46,-58
37,-54,-89,11,62,-71,93,97,9,-14,-43,-58
39,-53,-89,10,63,-71,94,100,13,-11,-40,-59
40,-52,-90,9,64,-71,96,103,17,-9,-38,-60
41,-52,-91,8,65,-71,96,106,20,-7,-37,-60
42,-52,-91,8,65,-71,97,108,23,-5,-35,-61
42,-52,-91,8,65,-71,97,110,26,-3,-34,-62
42,-52,-91,8,65,-71,98,112,29,-2,-33,-63
42,-51,-91,8,65,-71,98,114,32,0,-32,-63
42,-50,-90,7,65,-69,99,116,34,2,-31,-62
43,-48,-88,6,64,-68,100,119,37,4,-30,-62
44,-45,-86,4,64,-65,102,121,40,7,-29,-60
45,-41,-84,2,63,-62,104,124,43,10,-27,-59
47,-37,-81,0,63,-59,106,127,47,13,-25,-57
49,-32,-78,-4,62,-55,109,130,51,17,-22,-54
51,-27,-76,-7,62,-51,111,133,55,21,-19,-52
53,-22,-73,-11,62,-47,114,137,60,26,-16,-50
55,-18,-70,-14,62,-44,116,141,65,30,-13,-48
57,-14,-68,-16,61,-41,118,146,70,35,-9,-46
58,-11,-66,-18,61,-39,119,150,75,39,-5,-44
58,-9,-65,-20,61,-37,121,155,81,44,-2,-43
58,-8,-63,-20,60,-35,123,160,86,48,1,-42
58,-7,-62,-21,59,-34,125,165,92,53,5,-41
57,-7,-61,-21,58,-34,127,169,97,57,8,-40
57,-6,-60,-21,58,-33,129,174,103,61,12,-39
56,-5,-58,-21,57,-32,132,179,108,65,15,-38
57,-3,-57,-22,56,-30,136,183,114,70,18,-38
57,-1,-55,-24,56,-28,139,188,120,74,21,-37
59,2,-53,-26,55,-25,143,193,125,78,23,-35
60,6,-51,-29,55,-21,147,198,131,82,26,-34
62,11,-48,-33,55,-18,151,203,138,87,30,-32
64,17,-45,-36,54,-14,154,209,144,92,33,-29
66,22,-41,-40,54,-10,157,214,151,97,36,-26
67,26,-38,-43,52,-6,158,219,157,102,40,-22
68,31,-34,-45,51,-2,159,223,164,108,44,-18
67,34,-30,-46,49,1,160,228,171,114,48,-14
66,37,-27,-47,46,4,159,231,178,120,52,-9
65,39,-23,-48,44,7,159,235,185,126,57,-5
63,41,-19,-48,41,10,158,239,192,132,62,-2
62,44,-16,-49,39,13,158,243,200,139,67,0
62,47,-12,-50,36,16,159,248,208,146,72,3
62,50,-9,-52,34,20,160,254,217,153,77,5
63,55,-5,-55,33,24,162,261,227,161,83,8
65,60,-1,-59,32,29,166,269,238,169,90,10
67,67,2,-63,30,34,170,279,249,178,96,12
69,73,6,-67,29,40,175,289,260,187,102,14
71,80,12,-71,28,46,180,299,272,196,109,16
72,87,17,-76,26,52,186,310,284,205,115,18
74,94,23,-80,24,59,191,321,295,215,122,21
74,101,30,-84,22,66,197,332,307,224,128,24
75,108,36,-87,20,72,203,343,319,234,134,27
75,115,42,-91,17,79,209,354,330,243,139,31
75,122,49,-95,15,85,215,365,342,253,145,35
76,128,55,-99,12,92,221,375,354,263,151,38
77,135,61,-103,10,98,227,386,366,273,157,42
78,143,68,-107,7,105,233,396,379,283,164,46
79,151,74,-112,5,112,239,407,392,293,171,49
81,160,81,-117,3,120,244,418,405,304,178,53
84,170,89,-123,0,129,249,429,418,315,187,57
86,181,98,-130,-2,139,254,440,432,327,196,61
89,193,107,-137,-5,150,259,451,446,340,207,66
92,207,117,-145,-9,162,263,461,460,353,218,72
96,221,128,-154,-13,175,266,472,475,367,231,78
99,236,139,-163,-16,188,270,483,490,381,244,86
103,252,150,-173,-20,201,274,494,505,396,258,94
107,267,161,-183,-24,214,278,505,519,410,273,103
111,281,171,-192,-27,227,282,516,534,424,287,112
115,295,180,-200,-30,238,286,525,548,438,301,122
117,306,188,-207,-33,248,289,534,561,451,314,133
120,316,196,-213,-36,256,293,542,572,463,326,143
121,325,203,-218,-39,264,297,549,583,473,337,152
122,332,209,-223,-41,271,301,555,592,483,348,162
123,340,216,-227,-44,278,304,559,599,492,357,171
123,347,223,-232,-48,285,308,563,605,500,366,180
124,356,231,-236,-51,293,311,565,611,507,374,188
125,365,239,-242,-55,302,314,567,615,514,382,197
127,376,249,-248,-59,312,317,569,619,520,390,205
129,387,259,-255,-63,323,319,569,622,526,397,213
131,399,269,-262,-67,333,320,569,624,531,404,221
133,411,279,-269,-71,344,320,567,626,536,410,228
135,422,288,-275,-75,354,319,564,626,539,416,235
136,431,296,-280,-79,363,316,559,624,542,422,241
136,438,304,-284,-82,370,312,553,621,544,427,247
135,443,310,-286,-86,376,306,544,617,544,431,251
133,446,314,-286,-89,380,299,533,610,544,434,255
130,447,318,-285,-92,382,291,520,601,541,437,258
127,446,321,-283,-95,383,283,506,590,538,438,260
123,443,322,-280,-98,382,274,490,578,532,438,261
119,439,322,-277,-100,381,265,474,563,525,437,262
114,434,322,-272,-102,378,255,456,547,516,434,261
110,428,320,-267,-103,374,246,438,530,505,430,260
106,421,317,-262,-103,369,237,420,511,493,423,258
102,414,313,-256,-103,363,228,401,491,479,415,255
99,405,308,-250,-102,356,219,382,469,463,405,251
95,395,301,-243,-100,347,209,363,447,446,393,245
92,384,293,-235,-98,337,199,343,423,427,380,239
89,371,283,-227,-95,327,189,323,399,408,366,232
85,358,273,-218,-92,315,179,302,375,388,350,225
81,344,262,-209,-88,302,169,282,349,367,333,216
78,329,251,-199,-84,289,159,261,324,346,316,207
74,312,238,-189,-80,275,149,241,299,325,299,197
70,295,225,-178,-75,260,140,221,273,303,281,186
65,277,211,-167,-70,244,130,201,248,281,262,175
61,258,197,-155,-64,227,121,182,224,258,244,163
57,238,181,-143,-59,210,112,165,200,236,225,150
53,218,166,-131,-53,192,103,148,176,213,206,138
48,197,150,-118,-47,174,95,133,154,192,187,124
44,176,134,-106,-41,155,87,119,133,170,169,111
40,156,118,-94,-35,137,79,107,114,150,151,99
36,136,103,-82,-29,119,72,96,96,131,133,86
32,117,88,-71,-24,102,66,87,79,113,116,74
29,99,74,-60,-18,86,60,79,63,96,99,63
26,83,60,-51,-13,71,54,72,48,80,83,51
23,67,47,-42,-8,57,50,65,34,64,67,40
21,53,35,-33,-4,44,46,59,21,50,52,30
19,40,24,-26,0,32,42,53,9,37,38,19
17,27,14,-18,4,21,39,47,-2,24,24,9
15,16,4,-12,7,10,36,41,-13,12,11,0
13,6,-3,-6,10,1,34,35,-23,1,0,-10
11,-2,-11,0,13,-6,32,30,-33,-8,-12,-19
10,-11,-18,4,15,-14,31,26,-41,-17,-22,-27
8,-19,-24,9,16,-21,30,22,-48,-25,-31,-35
5,-26,-28,14,17,-27,30,18,-54,-31,-38,-42
3,-33,-33,18,18,-32,30,15,-59,-37,-45,-48
0,-39,-36,23,18,-37,31,12,-63,-41,-50,-53
-2,-45,-40,28,18,-42,31,10,-66,-45,-54,-58
-5,-51,-42,32,18,-47,31,8,-68,-49,-57,-62
-8,-57,-45,37,18,-51,30,5,-70,-52,-60,-66
-11,-63,-48,41,18,-55,28,2,-73,-55,-62,-69
-13,-67,-51,44,18,-59,26,0,-75,-58,-63,-71
-15,-71,-53,47,19,-62,23,-3,-78,-61,-64,-72
-15,-74,-56,48,20,-65,19,-6,-81,-64,-64,-73
-14,-76,-59,49,22,-68,15,-8,-84,-67,-65,-72
-13,-77,-62,49,24,-70,10,-10,-87,-70,-65,-71
-10,-77,-64,48,26,-71,7,-12,-90,-73,-66,-69
-8,-77,-66,47,29,-72,4,-13,-92,-76,-67,-67
-6,-77,-68,46,30,-72,2,-13,-94,-78,-68,-64
-5,-77,-69,45,31,-73,2,-13,-96,-79,-69,-61
-5,-77,-69,45,32,-74,3,-12,-96,-80,-70,-59
-6,-79,-70,47,31,-74,5,-10,-96,-81,-71,-58
-8,-81,-70,49,30,-75,9,-9,-95,-81,-72,-57
-11,-84,-69,52,28,-77,13,-7,-93,-80,-73,-57
-15,-87,-69,55,26,-78,17,-6,-91,-80,-75,-57
-19,-90,-68,59,24,-79,20,-5,-89,-80,-76,-58
-23,-94,-68,63,22,-81,23,-4,-88,-80,-77,-60
-26,-97,-67,66,20,-82,25,-5,-87,-81,-78,-61
-29,-100,-67,69,18,-84,25,-5,-87,-81,-79,-63
-31,-102,-67,71,17,-85,24,-7,-87,-82,-81,-64
-32,-103,-67,72,17,-85,22,-9,-88,-84,-82,-65
-33,-104,-68,72,17,-86,20,-10,-89,-85,-83,-66
-33,-104,-68,73,17,-86,17,-12,-91,-86,-83,-66
-32,-104,-68,72,17,-86,14,-14,-93,-87,-84,-67
-32,-104,-67,72,17,-86,11,-15,-94,-88,-84,-67
-33,-104,-67,72,17,-85,10,-14,-95,-88,-83,-68
-34,-103,-65,72,16,-84,9,-13,-96,-87,-83,-69
-35,-103,-63,73,14,-83,10,-11,-96,-86,-83,-70
-37,-102,-61,74,12,-81,11,-8,-95,-85,-82,-72
-40,-102,-58,75,10,-80,13,-4,-94,-84,-82,-74
-43,-102,-55,76,7,-78,15,0,-92,-83,-82,-76
-45,-102,-53,77,5,-77,18,4,-91,-81,-82,-78
-47,-101,-51,78,3,-75,21,8,-89,-81,-83,-80
-48,-101,-49,78,1,-74,23,11,-87,-80,-83,-81
-49,-100,-48,78,0,-73,25,14,-86,-79,-84,-82
-49,-99,-47,78,0,-72,27,17,-84,-79,-84,-82
-48,-98,-47,76,0,-72,28,18,-83,-79,-84,-81
-46,-96,-46,75,1,-71,29,19,-82,-78,-84,-79
-45,-94,-46,73,1,-69,30,19,-81,-78,-83,-77
-43,-92,-45,71,2,-68,30,19,-80,-77,-82,-74
-42,-90,-44,69,2,-66,30,19,-79,-76,-80,-71
-41,-87,-43,67,2,-64,29,19,-78,-74,-78,-68
-40,-85,-41,66,2,-62,28,19,-78,-73,-77,-64
-40,-83,-40,65,1,-61,27,19,-78,-72,-75,-62
-40,-81,-38,64,1,-59,25,20,-78,-72,-74,-60
-40,-80,-37,64,1,-58,23,21,-78,-72,-74,-58
-40,-80,-37,64,1,-58,21,22,-79,-72,-74,-58
-41,-81,-38,65,1,-59,20,23,-80,-73,-75,-58
-41,-82,-39,65,2,-60,18,24,-82,-75,-76,-59
-41,-84,-41,67,2,-62,16,25,-84,-77,-78,-61
-41,-87,-44,68,4,-65,15,26,-86,-79,-80,-63
-41,-89,-46,69,5,-68,14,26,-88,-81,-81,-65
-41,-92,-49,70,6,-70,14,26,-90,-83,-83,-67
-41,-94,-51,71,7,-72,14,26,-92,-85,-84,-68
-41,-96,-53,72,7,-74,15,26,-94,-86,-85,-69
-40,-96,-53,72,8,-75,16,26,-95,-87,-84,-70
-40,-96,-53,72,8,-75,17,27,-95,-87,-84,-70
-39,-95,-53,71,8,-74,19,28,-95,-87,-83,-69
-39,-94,-52,70,8,-73,21,30,-95,-86,-81,-68
-37,-92,-51,69,8,-72,23,32,-94,-86,-80,-67
-36,-90,-51,67,8,-70,25,35,-93,-85,-78,-67
-35,-88,-50,66,8,-69,26,38,-92,-84,-77,-66
-33,-88,-51,65,9,-69,26,40,-91,-83,-77,-65
-33,-88,-52,64,9,-70,26,41,-90,-83,-77,-65
-32,-89,-53,65,10,-71,24,41,-90,-83,-77,-66
-32,-91,-55,66,11,-73,21,40,-90,-83,-78,-67
-33,-94,-57,67,11,-76,17,39,-91,-84,-79,-68
-33,-96,-60,69,12,-78,13,37,-91,-85,-80,-69
-34,-98,-61,70,13,-80,8,34,-92,-87,-80,-70
-34,-100,-63,71,13,-81,4,32,-93,-88,-81,-70
-33,-100,-63,71,14,-82,1,30,-93,-89,-81,-70
-32,-99,-64,70,15,-82,0,29,-93,-89,-81,-70
-30,-97,-64,68,16,-81,-2,29,-93,-90,-81,-69
-27,-94,-64,65,17,-80,-2,29,-93,-90,-81,-67
-24,-91,-64,62,19,-78,-1,30,-93,-90,-81,-66
-21,-88,-64,59,21,-77,-1,32,-93,-91,-81,-64
-18,-85,-64,56,22,-75,0,33,-93,-91,-81,-63
-15,-83,-65,54,23,-74,1,35,-93,-91,-82,-63
-14,-81,-65,52,24,-74,1,36,-93,-91,-82,-63
-13,-80,-64,52,24,-73,2,37,-93,-92,-83,-64
-13,-80,-63,51,24,-72,2,37,-93,-92,-83,-66
-14,-80,-62,51,23,-71,2,37,-93,-93,-84,-68
-15,-79,-61,52,22,-71,2,36,-94,-94,-84,-70
-16,-79,-60,52,21,-70,1,35,-95,-96,-85,-73
-17,-80,-60,52,21,-70,0,34,-97,-97,-86,-75
-17,-80,-59,53,20,-70,0,32,-98,-99,-88,-77
-18,-82,-60,54,20,-71,-1,30,-100,-101,-89,-78
-18,-84,-62,55,21,-73,-3,29,-102,-103,-91,-79
-19,-87,-64,57,22,-75,-5,27,-105,-105,-93,-79
-20,-91,-67,59,23,-79,-7,27,-106,-106,-95,-80
-21,-95,-70,62,24,-82,-9,26,-108,-108,-96,-80
-23,-100,-73,65,24,-86,-12,26,-109,-109,-98,-80
-25,-104,-75,68,25,-89,-14,26,-110,-109,-98,-79
-27,-108,-77,72,24,-92,-15,26,-111,-110,-98,-79
-30,-111,-78,74,23,-94,-17,27,-112,-110,-98,-78
-32,-113,-77,76,22,-94,-17,27,-112,-110,-98,-78
-34,-113,-75,78,20,-94,-18,26,-113,-110,-97,-76
-35,-112,-73,78,18,-92,-17,26,-114,-110,-96,-75
-36,-111,-71,78,17,-90,-16,26,-114,-110,-94,-74
-37,-109,-68,77,15,-88,-15,25,-115,-110,-93,-72
-37,-107,-66,76,14,-86,-13,24,-116,-110,-92,-71
-37,-106,-65,76,14,-85,-11,24,-116,-110,-91,-70
-37,-105,-65,75,14,-85,-9,24,-116,-110,-90,-69
-37,-106,-65,76,14,-86,-8,24,-115,-110,-89,-69
-37,-108,-67,77,15,-87,-7,25,-115,-110,-89,-70
-38,-111,-69,79,16,-90,-6,25,-114,-110,-88,-71
-39,-114,-71,81,16,-93,-6,26,-113,-111,-88,-73
-40,-117,-73,83,17,-95,-7,26,-112,-111,-88,-75
-41,-120,-75,85,17,-98,-9,26,-112,-111,-88,-77
-43,-122,-76,87,17,-99,-11,26,-111,-111,-88,-79
-44,-123,-76,87,16,-99,-13,25,-111,-111,-88,-81
-44,-123,-75,88,16,-99,-15,24,-111,-111,-89,-83
-44,-122,-74,87,15,-98,-18,22,-112,-112,-89,-83
-43,-121,-74,86,15,-97,-20,20,-113,-112,-90,-83
-42,-119,-73,84,15,-96,-22,18,-115,-113,-92,-83
-40,-116,-73,82,16,-95,-23,16,-117,-114,-93,-82
-37,-114,-73,79,18,-94,-24,14,-118,-115,-94,-80
-34,-112,-74,77,20,-93,-24,13,-120,-116,-95,-79
-31,-110,-75,75,22,-92,-24,13,-121,-117,-96,-77
-28,-108,-76,72,23,-92,-24,14,-122,-117,-96,-76
-26,-105,-76,70,25,-91,-22,15,-122,-117,-96,-75
-24,-103,-76,68,26,-90,-21,17,-121,-117,-95,-75
-23,-101,-75,67,26,-88,-20,20,-120,-116,-94,-75
-23,-100,-73,66,25,-86,-18,22,-119,-115,-93,-76
-24,-99,-71,66,23,-84,-17,25,-118,-114,-93,-77
-26,-98,-68,67,21,-83,-17,27,-117,-114,-93,-78
-28,-98,-66,68,19,-82,-18,28,-117,-114,-94,-80
-31,-100,-65,70,17,-82,-19,29,-117,-115,-96,-82
-34,-102,-64,72,15,-82,-20,28,-119,-117,-99,-83
-36,-104,-64,75,14,-84,-22,27,-121,-119,-102,-85
-39,-107,-64,77,13,-85,-24,25,-123,-122,-105,-86
-40,-110,-66,79,12,-87,-26,23,-125,-125,-109,-87
-41,-112,-67,81,12,-89,-28,22,-127,-127,-111,-88
-41,-114,-69,81,13,-91,-29,21,-129,-129,-113,-88
-41,-115,-70,82,14,-92,-30,20,-130,-130,-115,-88
-40,-115,-72,81,15,-93,-30,20,-131,-131,-115,-88
-39,-115,-73,81,16,-94,-30,20,-131,-131,-114,-89
-37,-115,-74,80,18,-94,-29,21,-130,-130,-113,-89
-36,-114,-75,79,19,-95,-29,21,-129,-129,-112,-90
-34,-114,-77,78,20,-95,-28,22,-129,-128,-110,-91
-33,-115,-78,78,21,-96,-28,21,-128,-127,-109,-92
-33,-115,-79,78,22,-97,-29,20,-128,-126,-107,-93
-33,-116,-80,78,23,-98,-30,19,-128,-125,-106,-94
-33,-118,-81,79,23,-99,-31,17,-129,-125,-105,-95
-34,-119,-81,80,22,-100,-32,16,-130,-125,-104,-95
-36,-120,-80,82,22,-100,-33,15,-131,-125,-104,-95
-37,-121,-80,83,20,-100,-33,14,-132,-126,-104,-94
-39,-121,-78,84,19,-99,-34,15,-133,-126,-104,-92
-40,-120,-77,84,18,-98,-34,16,-133,-126,-104,-90
-40,-119,-75,84,17,-97,-33,17,-133,-126,-103,-88
-40,-117,-73,83,16,-95,-33,19,-133,-125,-103,-86
-40,-115,-72,81,15,-94,-32,21,-132,-124,-102,-84
-38,-113,-71,80,16,-92,-32,23,-130,-122,-101,-82
-36,-111,-71,78,17,-91,-32,24,-129,-121,-99,-81
-34,-109,-72,76,18,-91,-33,25,-128,-119,-98,-81
-31,-108,-74,74,21,-91,-34,24,-128,-118,-97,-82
-28,-107,-76,72,24,-92,-36,23,-128,-117,-96,-83
-24,-107,-79,70,27,-93,-38,21,-128,-117,-96,-85
-21,-107,-82,68,30,-95,-40,20,-128,-118,-96,-87
-17,-107,-86,66,34,-97,-42,18,-129,-119,-97,-89
-15,-107,-89,65,37,-98,-43,16,-130,-121,-98,-90
-13,-107,-91,64,39,-99,-45,14,-131,-123,-100,-90
-12,-108,-93,64,40,-100,-46,12,-132,-125,-101,-90
-12,-109,-93,65,40,-101,-47,10,-134,-127,-103,-89
-14,-110,-93,66,40,-102,-48,8,-135,-129,-104,-88
-17,-112,-92,68,38,-102,-49,6,-136,-131,-105,-87
-20,-114,-90,71,35,-102,-50,4,-137,-133,-106,-85
-25,-116,-88,74,32,-101,-51,3,-138,-134,-107,-84
-29,-118,-85,77,28,-101,-51,2,-139,-135,-106,-83
-33,-119,-82,80,25,-101,-52,1,-139,-135,-106,-83
-37,-121,-80,83,22,-100,-51,1,-139,-135,-105,-84
-40,-121,-78,85,19,-99,-50,2,-138,-134,-104,-85
-42,-121,-76,86,17,-99,-48,3,-136,-133,-103,-87
-43,-121,-75,86,16,-98,-46,5,-135,-131,-102,-90
-43,-121,-74,86,16,-98,-44,7,-133,-130,-101,-92
-42,-120,-74,86,16,-97,-41,8,-131,-129,-100,-94
-41,-120,-75,85,16,-97,-39,10,-129,-128,-100,-96
-40,-120,-76,84,17,-97,-37,10,-128,-128,-100,-98
-39,-119,-77,83,19,-98,-36,10,-128,-128,-101,-99
-37,-119,-78,82,20,-98,-35,9,-128,-129,-103,-99
-36,-119,-80,82,22,-99,-36,8,-129,-130,-105,-99
-35,-120,-81,82,23,-100,-37,6,-131,-132,-107,-98
-34,-121,-83,82,24,-101,-39,3,-133,-134,-109,-97
-34,-121,-83,82,25,-102,-41,0,-135,-137,-112,-97
-35,-122,-84,83,25,-103,-43,-1,-137,-139,-114,-96
-36,-123,-84,83,24,-103,-46,-3,-139,-140,-116,-95
-37,-124,-83,84,23,-103,-48,-5,-140,-141,-116,-95
-38,-124,-82,85,22,-103,-50,-5,-140,-141,-116,-94
-39,-124,-81,86,21,-102,-51,-5,-139,-140,-115,-94
-40,-123,-79,85,20,-101,-51,-4,-137,-138,-114,-93
-39,-121,-78,84,20,-100,-51,-2,-135,-136,-111,-93
-38,-119,-77,83,20,-98,-50,0,-132,-133,-108,-92
-36,-116,-76,80,20,-96,-48,3,-129,-130,-105,-90
-33,-112,-76,77,21,-94,-46,6,-125,-127,-102,-89
-29,-108,-75,73,23,-92,-43,10,-122,-124,-99,-87
-26,-104,-75,69,24,-90,-39,13,-119,-121,-96,-85
-22,-100,-74,65,25,-87,-35,16,-117,-118,-94,-83
-19,-96,-73,61,26,-84,-31,18,-115,-116,-92,-81
-16,-91,-71,58,27,-81,-27,19,-113,-114,-91,-80
-14,-88,-69,55,27,-78,-24,20,-112,-113,-91,-78
-13,-84,-67,53,27,-76,-21,20,-112,-113,-91,-77
-12,-81,-65,51,26,-73,-18,20,-112,-112,-92,-76
-11,-78,-63,49,26,-70,-17,18,-113,-113,-93,-76
-10,-75,-61,47,25,-68,-17,17,-114,-113,-94,-76
-9,-73,-59,45,25,-66,-19,15,-115,-114,-96,-77
-8,-70,-58,43,25,-64,-21,13,-117,-115,-97,-77
-6,-67,-57,41,26,-62,-24,10,-118,-115,-98,-78
-4,-64,-56,38,27,-60,-28,8,-119,-115,-98,-79
0,-60,-55,34,28,-57,-32,5,-120,-114,-97,-79
2,-55,-54,30,29,-54,-36,3,-120,-113,-96,-78
6,-49,-52,25,30,-50,-39,0,-120,-110,-93,-76
11,-42,-50,19,31,-46,-43,-1,-120,-107,-90,-73
15,-35,-48,14,32,-42,-46,-3,-119,-104,-85,-69
20,-29,-46,8,33,-37,-49,-6,-118,-101,-81,-64
24,-23,-44,3,34,-33,-52,-9,-118,-99,-77,-59
27,-18,-43,0,35,-30,-56,-12,-118,-97,-73,-55
29,-15,-42,-2,36,-29,-59,-15,-118,-96,-70,-51
31,-14,-42,-3,37,-28,-63,-18,-119,-97,-69,-48
31,-15,-44,-3,38,-29,-68,-21,-121,-98,-69,-46
31,-18,-46,-1,39,-32,-72,-24,-123,-100,-70,-46
29,-22,-49,0,40,-35,-76,-27,-125,-103,-72,-47
28,-27,-52,4,41,-40,-79,-30,-127,-105,-74,-49
26,-33,-56,8,42,-45,-81,-32,-129,-108,-77,-51
24,-39,-60,12,43,-49,-83,-34,-131,-110,-80,-54
22,-44,-63,15,44,-54,-83,-35,-132,-112,-83,-58
21,-49,-67,18,45,-58,-83,-36,-133,-113,-84,-61
20,-52,-69,20,46,-61,-82,-37,-133,-114,-85,-63
20,-55,-72,21,48,-63,-80,-37,-133,-114,-86,-65
21,-56,-74,22,49,-65,-78,-36,-133,-114,-86,-65
21,-57,-76,22,50,-67,-75,-36,-132,-113,-85,-66
22,-58,-77,21,51,-68,-73,-36,-132,-112,-84,-65
23,-58,-79,21,52,-69,-70,-37,-131,-112,-84,-65
23,-59,-80,22,53,-70,-68,-38,-130,-111,-83,-65
23,-61,-81,23,53,-71,-65,-41,-130,-111,-83,-65
21,-64,-82,25,53,-73,-63,-45,-129,-112,-84,-66
19,-67,-84,28,52,-75,-61,-50,-129,-112,-85,-68
15,-72,-85,32,51,-79,-60,-57,-129,-113,-87,-71
11,-78,-87,37,50,-83,-59,-65,-130,-115,-90,-74
6,-85,-89,43,48,-87,-58,-75,-130,-117,-93,-79
1,-93,-91,50,46,-92,-58,-85,-132,-119,-96,-83
-4,-101,-93,56,45,-97,-58,-95,-134,-122,-100,-88
-9,-109,-96,63,44,-103,-58,-106,-136,-125,-104,-93
-13,-116,-99,69,43,-108,-59,-116,-139,-129,-108,-97
-17,-123,-102,74,43,-113,-60,-125,-143,-133,-113,-101
-20,-130,-105,78,43,-118,-61,-133,-147,-137,-117,-104
-22,-135,-109,82,44,-122,-63,-140,-151,-142,-121,-107
-24,-140,-112,85,44,-126,-65,-146,-156,-146,-125,-108
-25,-143,-115,88,45,-129,-68,-151,-161,-151,-128,-110
-26,-146,-117,90,46,-132,-71,-156,-165,-156,-132,-111
-27,-149,-118,92,46,-134,-74,-159,-169,-160,-134,-111
-29,-151,-119,93,46,-135,-78,-162,-172,-164,-137,-112
-30,-152,-119,95,45,-135,-81,-164,-174,-166,-138,-112
-32,-153,-117,96,43,-135,-84,-165,-175,-168,-139,-112
-34,-153,-116,98,41,-134,-86,-165,-176,-169,-139,-112
-37,-154,-114,99,39,-134,-87,-164,-175,-169,-139,-112
-38,-154,-112,100,37,-133,-87,-162,-173,-168,-137,-112
-40,-154,-111,101,36,-132,-86,-160,-171,-166,-136,-112
-41,-154,-110,102,35,-132,-85,-158,-169,-165,-134,-113
-41,-155,-110,102,35,-133,-83,-155,-167,-163,-133,-114
-40,-155,-111,101,36,-133,-81,-153,-166,-162,-132,-115
-38,-156,-113,101,38,-135,-80,-152,-165,-161,-132,-117
-36,-156,-116,100,41,-136,-78,-151,-165,-161,-132,-119
-34,-157,-119,99,43,-138,-77,-152,-166,-161,-133,-120
-31,-157,-122,98,46,-140,-77,-152,-167,-162,-134,-122
-29,-158,-125,97,48,-141,-77,-154,-168,-163,-136,-123
-27,-157,-126,96,50,-142,-77,-155,-169,-164,-138,-123
-25,-157,-127,95,52,-142,-77,-157,-169,-165,-139,-123
-25,-156,-128,95,52,-142,-77,-158,-170,-166,-141,-123
-24,-155,-127,94,52,-141,-76,-159,-169,-166,-142,-122
-24,-154,-125,93,51,-139,-75,-159,-168,-167,-142,-122
-25,-152,-123,93,50,-138,-75,-159,-167,-166,-142,-121
-26,-151,-121,92,48,-136,-74,-159,-165,-166,-142,-121
-26,-149,-119,92,47,-134,-74,-158,-164,-165,-142,-122
-27,-148,-117,92,45,-133,-74,-158,-162,-164,-141,-124
-28,-148,-116,92,44,-132,-76,-158,-161,-163,-141,-126
-28,-148,-115,92,44,-131,-78,-158,-160,-162,-140,-128
-29,-148,-115,92,43,-131,-81,-159,-161,-161,-139,-130
-29,-148,-115,92,43,-132,-84,-160,-161,-161,-139,-131
-29,-148,-116,92,44,-132,-88,-163,-163,-160,-138,-132
-28,-148,-117,92,45,-133,-93,-165,-165,-161,-137,-131
-27,-148,-118,91,46,-133,-97,-169,-168,-161,-136,-128
-25,-148,-120,90,48,-134,-101,-172,-170,-161,-134,-125
-24,-148,-121,89,49,-135,-103,-174,-172,-162,-133,-121
-22,-148,-123,89,51,-136,-104,-174,-172,-162,-133,-117
-21,-149,-125,89,53,-137,-102,-171,-171,-163,-134,-115
-21,-151,-127,89,54,-139,-96,-163,-166,-162,-137,-115
-21,-153,-129,91,55,-141,-85,-150,-157,-161,-142,-119
-23,-156,-130,94,54,-143,-68,-129,-143,-157,-149,-127
-27,-159,-129,97,52,-144,-46,-100,-124,-151,-157,-138
-30,-160,-127,99,49,-144,-19,-63,-97,-141,-165,-152
-33,-157,-121,99,45,-139,11,-21,-63,-124,-169,-167
-34,-148,-110,95,39,-129,43,24,-23,-100,-165,-178
-32,-129,-93,85,32,-111,73,70,22,-65,-149,-181
-24,-97,-69,65,24,-83,97,111,71,-20,-115,-172
-9,-48,-35,33,15,-42,110,141,122,38,-59,-146
14,19,8,-12,5,13,108,154,172,111,23,-97
46,109,64,-74,-5,86,89,148,217,197,136,-22
89,220,133,-150,-18,176,49,116,257,297,279,80
138,352,215,-241,-34,283,-11,59,288,408,450,211
194,502,307,-344,-52,404,-91,-21,310,526,644,366
253,662,409,-454,-73,535,-187,-125,322,646,852,540
310,827,516,-565,-98,671,-294,-245,323,764,1065,726
363,986,622,-671,-124,804,-406,-376,313,871,1268,912
406,1130,722,-764,-152,926,-517,-509,293,960,1450,1089
437,1249,810,-839,-181,1029,-621,-638,261,1025,1596,1244
453,1333,879,-889,-207,1106,-713,-756,217,1057,1695,1367
452,1376,923,-910,-230,1150,-789,-859,160,1052,1739,1450
433,1375,940,-900,-248,1157,-846,-943,90,1008,1723,1486
399,1327,926,-859,-258,1127,-885,-1007,7,923,1647,1475
352,1236,884,-790,-261,1060,-904,-1051,-86,800,1515,1416
294,1108,814,-697,-255,961,-908,-1076,-190,646,1335,1316
230,953,722,-587,-242,838,-897,-1085,-298,470,1121,1182
164,779,615,-467,-221,697,-874,-1079,-407,282,887,1024
100,599,499,-345,-195,550,-842,-1060,-509,95,648,853
42,424,382,-229,-166,403,-803,-1031,-598,-80,419,680
-6,262,270,-124,-135,267,-759,-992,-668,-233,212,515
-44,122,169,-35,-104,146,-711,-945,-717,-357,37,367
-72,8,83,35,-75,46,-661,-891,-740,-447,-100,239
-88,-76,14,86,-49,-30,-608,-829,-738,-502,-198,136
-95,-135,-36,119,-27,-85,-554,-763,-713,-524,-260,58
-94,-168,-70,135,-10,-119,-499,-693,-668,-517,-290,3
-86,-180,-90,137,3,-135,-444,-621,-609,-488,-293,-30
-75,-177,-98,130,12,-138,-390,-549,-541,-444,-278,-49
-61,-164,-98,116,19,-131,-338,-479,-469,-391,-252,-57
-47,-144,-93,100,23,-119,-288,-412,-398,-336,-220,-57
-34,-123,-85,82,26,-104,-242,-350,-331,-283,-189,-53
-23,-104,-76,67,27,-90,-200,-295,-272,-235,-160,-48
-14,-87,-69,55,28,-78,-162,-246,-220,-195,-135,-44
-8,-76,-64,46,28,-70,-130,-204,-177,-162,-116,-42
-4,-69,-60,40,28,-65,-102,-169,-143,-137,-103,-42
-3,-66,-59,38,29,-62,-80,-141,-115,-118,-93,-45
-3,-66,-59,38,29,-63,-62,-119,-94,-104,-87,-49
-4,-69,-61,40,29,-65,-48,-103,-78,-93,-83,-55
-6,-73,-62,43,29,-68,-38,-90,-65,-86,-81,-60
-9,-77,-64,47,28,-71,-31,-82,-55,-80,-79,-66
-11,-81,-66,50,28,-73,-26,-75,-48,-75,-78,-71
-13,-83,-66,52,27,-75,-23,-71,-41,-71,-77,-75
-14,-84,-67,53,27,-75,-20,-67,-35,-67,-76,-77
-13,-83,-66,52,27,-75,-18,-64,-29,-62,-74,-78
-12,-81,-65,50,27,-73,-15,-61,-23,-58,-71,-77
-9,-76,-63,47,27,-70,-12,-57,-17,-53,-69,-75
-6,-70,-60,42,27,-65,-8,-52,-11,-47,-65,-72
-2,-62,-57,36,28,-60,-4,-47,-4,-42,-61,-68
2,-54,-54,30,28,-54,0,-41,3,-35,-57,-64
6,-46,-50,24,28,-48,5,-34,10,-29,-53,-59
9,-39,-46,18,28,-43,10,-28,16,-23,-48,-56
11,-34,-42,15,27,-38,15,-23,22,-18,-44,-54
11,-30,-40,13,26,-35,18,-19,27,-13,-40,-53
10,-30,-38,13,24,-34,20,-16,31,-9,-37,-54
8,-31,-37,15,23,-34,21,-15,34,-6,-35,-56
5,-35,-37,19,21,-36,20,-15,36,-4,-33,-59
1,-40,-39,23,20,-39,19,-17,37,-3,-33,-64
-2,-47,-41,29,19,-44,17,-19,37,-2,-33,-68
-6,-53,-44,33,19,-48,14,-21,37,-2,-33,-72
-8,-58,-47,37,19,-52,11,-23,37,-2,-33,-75
-9,-62,-49,40,20,-56,9,-25,37,-1,-34,-77
-9,-64,-51,41,21,-58,8,-25,37,-1,-34,-77
-8,-64,-52,40,22,-58,8,-24,38,0,-34,-75
-6,-62,-52,38,23,-57,9,-22,39,0,-33,-72
-4,-58,-51,35,24,-55,11,-18,41,2,-31,-68
-1,-54,-49,31,24,-52,14,-14,44,5,-28,-64
1,-48,-47,27,24,-48,19,-8,48,9,-25,-59
4,-42,-44,22,24,-43,23,-3,52,13,-21,-55
7,-35,-40,18,24,-38,28,3,57,19,-17,-52
10,-30,-37,14,24,-34,33,9,63,24,-11,-49
12,-24,-34,10,24,-29,37,14,69,30,-6,-48
14,-20,-32,7,24,-26,41,19,76,36,-1,-47
16,-16,-30,4,24,-23,44,23,82,42,3,-48
18,-14,-29,2,24,-22,46,27,88,47,8,-48
19,-13,-29,1,24,-21,46,29,93,51,11,-48
20,-13,-30,0,25,-21,46,30,97,54,13,-48
20,-13,-31,0,26,-22,45,31,100,56,14,-47
21,-14,-32,0,27,-23,44,31,103,57,14,-46
21,-15,-34,1,28,-24,43,32,104,57,14,-44
22,-16,-35,1,29,-25,43,32,106,57,13,-41
23,-16,-36,0,29,-25,43,34,108,58,13,-38
24,-14,-35,0,30,-24,44,36,111,59,14,-34
25,-11,-34,-3,29,-22,45,40,114,62,16,-30
26,-7,-31,-6,29,-18,48,45,119,65,20,-26
28,-1,-27,-9,28,-14,51,50,125,70,25,-23
30,5,-22,-14,26,-8,54,57,132,76,31,-19
32,13,-16,-19,25,-1,58,64,141,84,38,-16
34,21,-10,-24,23,5,63,71,150,92,46,-12
36,29,-4,-29,21,12,67,79,160,101,53,-10
38,36,0,-33,19,18,72,87,169,109,60,-7
39,42,5,-37,17,24,77,94,179,118,67,-5
40,47,9,-40,16,29,81,102,188,126,73,-4
41,51,13,-42,14,32,86,109,197,134,78,-2
41,54,16,-44,13,35,90,116,205,141,82,-1
41,57,18,-45,12,38,94,122,213,147,86,0
41,59,20,-46,11,40,97,129,221,154,89,1
41,62,23,-47,10,43,101,135,230,160,93,3
42,65,26,-49,9,46,104,142,238,166,96,5
43,70,29,-53,8,50,107,149,247,173,100,8
46,77,34,-57,7,55,110,157,257,181,105,11
49,85,38,-63,6,61,113,164,268,189,110,15
53,94,43,-69,6,69,116,173,279,199,116,19
57,104,49,-76,5,76,120,182,292,209,122,22
61,114,55,-83,5,84,123,191,304,219,129,25
65,123,61,-90,4,92,127,201,317,230,136,27
68,132,67,-96,2,100,132,211,330,241,143,29
69,140,73,-101,1,106,136,221,343,252,149,30
70,147,79,-104,-1,113,141,231,356,262,156,32
70,153,85,-107,-3,119,146,240,368,273,163,33
70,158,91,-110,-6,124,151,250,379,282,170,35
69,164,97,-113,-9,130,156,258,389,292,177,38
70,170,103,-116,-11,137,161,267,400,301,184,43
71,178,109,-121,-14,144,166,275,410,311,192,49
74,188,116,-127,-16,152,171,283,420,320,201,56
78,199,123,-134,-17,161,176,292,431,331,211,65
83,212,131,-144,-18,172,181,301,442,342,222,75
89,227,140,-154,-20,183,186,310,455,354,234,86
96,243,149,-165,-22,196,192,320,468,367,246,97
102,259,159,-177,-24,209,197,331,482,380,259,108
108,276,169,-188,-26,223,202,342,496,394,272,118
113,292,180,-199,-30,236,207,353,510,409,285,128
117,307,191,-208,-33,249,211,364,524,423,298,136
119,320,202,-216,-38,262,216,374,538,436,310,143
121,332,213,-223,-43,273,220,383,550,448,321,150
121,343,223,-229,-48,283,223,390,560,459,331,155
121,352,232,-233,-53,292,225,395,569,469,340,161
120,359,241,-236,-57,300,227,399,577,477,349,166
119,366,249,-239,-62,307,227,401,583,485,357,171
118,372,256,-241,-66,314,227,401,588,491,364,177
118,378,263,-244,-69,320,226,400,591,496,372,184
118,385,270,-247,-73,327,225,398,594,501,380,192
118,393,277,-251,-76,334,223,396,596,506,388,201
119,401,285,-255,-79,342,222,393,598,510,396,210
120,411,293,-260,-83,351,220,390,598,514,404,220
121,421,302,-266,-87,361,219,387,599,518,412,231
123,431,311,-272,-91,371,219,384,598,523,420,241
124,442,321,-277,-95,381,218,380,597,526,428,250
125,452,330,-283,-99,391,218,376,594,529,435,258
125,461,338,-287,-103,399,216,370,590,531,440,266
125,468,346,-290,-107,407,214,363,584,532,445,272
124,473,352,-292,-110,412,211,355,577,531,447,276
122,475,356,-293,-113,416,206,344,567,528,448,278
119,475,358,-291,-116,417,199,332,555,523,446,279
116,473,359,-288,-118,416,190,317,541,515,442,278
113,468,357,-284,-119,412,179,300,524,505,437,275
109,461,354,-279,-119,407,167,282,506,492,428,271
106,452,349,-273,-118,401,154,262,485,477,419,266
103,443,343,-267,-117,393,140,242,463,460,407,261
100,433,335,-261,-114,384,127,221,440,442,394,255
98,422,327,-255,-111,374,114,201,417,423,380,248
97,411,317,-250,-107,364,102,181,393,403,365,242
96,399,306,-244,-102,353,91,162,370,382,350,235
95,387,294,-237,-97,340,82,144,346,361,334,227
93,372,281,-230,-91,327,74,127,323,340,317,219
90,356,268,-221,-86,312,67,111,300,319,300,209
87,338,253,-210,-80,296,60,95,278,298,282,199
81,318,238,-197,-75,278,54,79,256,276,264,186
75,296,222,-182,-71,259,47,64,234,255,245,173
67,272,206,-166,-66,239,41,48,211,233,225,158
59,247,190,-150,-62,219,33,33,189,211,205,142
50,222,174,-133,-58,198,26,17,166,189,184,125
42,198,157,-116,-54,178,17,1,143,167,164,109
35,174,141,-101,-49,158,9,-13,121,146,144,93
29,153,126,-87,-44,139,1,-28,100,126,125,79
25,133,111,-75,-38,122,-6,-42,81,107,107,65
22,116,97,-65,-32,107,-13,-54,63,89,91,53
21,101,84,-57,-26,92,-19,-64,47,73,75,42
20,89,71,-51,-20,80,-23,-72,34,58,61,33
20,78,60,-45,-14,69,-27,-78,22,45,49,25
21,68,51,-41,-10,59,-30,-83,12,34,37,18
20,60,42,-36,-5,51,-32,-86,4,23,27,12
20,52,35,-32,-2,43,-33,-88,-2,14,17,7
17,44,29,-26,-1,36,-33,-90,-9,5,9,2
14,36,24,-21,0,30,-34,-92,-14,-2,1,-2
10,27,20,-14,0,23,-35,-94,-20,-9,-5,-7
4,18,16,-7,-1,17,-36,-96,-25,-15,-12,-13
-1,9,13,0,-2,11,-37,-99,-30,-20,-17,-18
-8,0,10,8,-4,5,-38,-101,-34,-25,-22,-25
-14,-9,7,16,-6,0,-39,-104,-37,-29,-26,-31
-20,-17,5,23,-7,-5,-39,-107,-40,-32,-29,-37
-24,-25,2,29,-8,-10,-39,-109,-43,-34,-32,-44
-28,-31,0,33,-8,-15,-39,-112,-45,-37,-35,-49
-29,-36,-3,36,-8,-19,-38,-114,-48,-39,-38,-53
-29,-39,-6,38,-6,-22,-37,-116,-50,-42,-42,-55
-28,-41,-10,39,-4,-25,-36,-117,-53,-45,-46,-56
-26,-42,-13,38,-2,-27,-34,-119,-56,-48,-50,-55
-23,-43,-16,37,0,-29,-33,-121,-59,-52,-55,-53
-20,-42,-19,35,2,-31,-32,-122,-62,-57,-60,-49
-17,-42,-22,33,5,-32,-31,-123,-65,-61,-64,-45
-14,-41,-24,32,7,-33,-31,-123,-68,-65,-68,-40
-12,-41,-25,31,8,-33,-30,-123,-69,-68,-70,-37
-11,-41,-26,31,9,-34,-30,-122,-70,-70,-72,-34
-11,-42,-27,31,9,-34,-29,-121,-70,-71,-72,-32
-12,-43,-27,32,8,-35,-29,-120,-69,-71,-72,-32
-14,-44,-27,34,7,-36,-29,-118,-67,-71,-71,-32
-16,-47,-27,36,6,-37,-30,-117,-66,-70,-70,-35
-19,-50,-27,39,5,-39,-31,-116,-65,-69,-69,-38
-21,-53,-28,41,4,-41,-32,-117,-65,-69,-69,-41
-24,-56,-29,44,4,-43,-33,-117,-65,-69,-69,-45
-26,-60,-31,47,3,-45,-35,-119,-65,-69,-70,-49
-27,-63,-32,49,3,-48,-36,-120,-66,-70,-72,-52
-29,-66,-34,51,3,-50,-38,-122,-67,-71,-73,-55
-29,-68,-35,53,4,-52,-38,-124,-69,-72,-75,-58
-30,-69,-36,53,4,-53,-39,-125,-70,-73,-76,-60
-30,-70,-36,54,4,-53,-38,-126,-71,-74,-77,-61
-30,-69,-35,53,4,-53,-38,-126,-71,-74,-78,-62
-30,-68,-35,53,4,-52,-37,-126,-71,-73,-78,-61
-30,-67,-33,52,3,-50,-35,-125,-70,-73,-77,-61
-29,-65,-31,51,2,-49,-34,-124,-69,-71,-76,-60
-29,-63,-30,50,2,-47,-32,-123,-68,-70,-75,-58
-29,-61,-28,49,1,-45,-30,-121,-66,-68,-74,-57
-29,-59,-26,47,1,-43,-28,-120,-65,-66,-73,-56
-28,-57,-25,46,0,-42,-27,-118,-63,-65,-73,-56
-28,-56,-25,46,0,-41,-26,-117,-63,-64,-73,-56
-27,-55,-25,45,0,-40,-26,-117,-62,-64,-74,-57
-27,-56,-25,45,0,-41,-26,-117,-63,-64,-75,-58
-26,-56,-26,45,1,-41,-26,-117,-63,-65,-77,-59
-26,-57,-27,46,1,-43,-27,-117,-64,-66,-79,-61
-27,-59,-28,47,2,-44,-27,-117,-66,-68,-81,-63
-27,-60,-30,48,2,-45,-28,-118,-67,-69,-83,-64
-27,-62,-31,48,2,-46,-28,-118,-68,-70,-84,-65
-27,-62,-31,49,2,-47,-29,-118,-68,-70,-85,-66
-28,-63,-31,49,2,-47,-29,-117,-68,-70,-85,-66
-28,-63,-31,49,2,-47,-28,-117,-68,-70,-85,-65
-28,-62,-31,49,2,-46,-27,-116,-67,-69,-84,-64
-28,-61,-30,49,2,-46,-27,-116,-66,-68,-82,-62
-28,-61,-29,48,2,-45,-26,-115,-65,-67,-80,-61
-28,-60,-29,48,2,-44,-25,-114,-65,-66,-79,-60
-27,-59,-29,47,3,-44,-25,-113,-64,-66,-77,-59
-26,-59,-30,47,4,-44,-24,-113,-64,-66,-76,-58
-25,-59,-31,46,5,-45,-25,-112,-64,-66,-75,-58
-24,-60,-32,46,6,-45,-25,-111,-65,-67,-75,-58
-23,-60,-33,45,7,-46,-26,-109,-65,-68,-74,-59
-22,-60,-35,45,9,-47,-26,-108,-64,-68,-74,-59
-20,-60,-36,44,9,-47,-26,-105,-63,-67,-73,-60
-20,-59,-36,43,10,-47,-26,-102,-62,-66,-72,-60
-19,-58,-35,42,10,-46,-25,-99,-60,-65,-71,-60
-19,-56,-33,41,9,-44,-23,-94,-58,-62,-69,-60
-19,-53,-30,40,7,-42,-21,-90,-55,-60,-67,-59
-20,-51,-27,39,6,-39,-19,-85,-53,-57,-64,-57
-20,-48,-24,38,4,-36,-16,-80,-51,-54,-62,-55
-20,-45,-21,37,3,-33,-13,-75,-49,-52,-59,-53
-20,-42,-18,35,2,-30,-10,-71,-49,-51,-58,-51
-18,-39,-17,33,2,-29,-7,-67,-49,-51,-57,-49
-16,-37,-16,31,3,-27,-5,-64,-50,-51,-57,-47
-14,-36,-17,29,5,-27,-3,-63,-51,-53,-57,-46
-10,-35,-20,26,8,-28,-2,-62,-54,-55,-59,-45
-7,-34,-23,24,11,-29,-2,-62,-56,-57,-61,-44
-3,-34,-26,23,14,-31,-3,-63,-59,-60,-63,-43
0,-35,-30,21,17,-33,-4,-65,-62,-63,-65,-43
2,-36,-35,20,20,-35,-6,-67,-65,-65,-68,-43
5,-37,-38,20,23,-38,-9,-69,-68,-68,-70,-42
7,-39,-42,19,25,-40,-12,-71,-70,-70,-72,-42
8,-40,-45,19,27,-42,-14,-72,-73,-72,-73,-41
9,-42,-48,19,29,-44,-17,-73,-74,-73,-74,-41
10,-43,-50,20,30,-46,-19,-72,-76,-74,-75,-40
10,-45,-51,21,31,-48,-20,-71,-77,-75,-76,-40
9,-46,-52,22,31,-49,-21,-68,-77,-75,-77,-41
8,-48,-53,23,31,-50,-21,-64,-77,-76,-77,-42
